0.00500 25786384.0
0.01500 28989672.0
0.02500 24820250.0
0.03500 17654876.0
0.04500 10524323.0
0.05500 5458362.0
0.06500 3038406.0
0.07500 2509025.0
0.08500 2650257.0
0.09500 2909533.0
0.10500 3185794.0
0.11500 3512118.0
0.12500 3751628.0
0.13500 4000916.0
0.14500 4253828.0
0.15500 4484218.0
0.16500 4727845.0
0.17500 5011473.0
0.18500 5288317.0
0.19500 5528776.0
0.20500 5798760.0
0.21500 6114455.0
0.22500 6325340.0
0.23500 6566541.0
0.24500 6801555.0
0.25500 7052507.0
0.26500 7282533.0
0.27500 7520270.0
0.28500 7769745.0
0.29500 8030462.0
0.30500 8276723.0
0.31500 8533113.0
0.32500 8732938.0
0.33500 8985320.0
0.34500 9168017.0
0.35500 9383011.0
0.36500 9706816.0
0.37500 9906155.0
0.38500 10064697.0
0.39500 10225085.0
0.40500 10376745.0
0.41500 10517014.0
0.42500 10280427.0
0.43500 9208585.0
0.44500 7212282.0
0.45500 5166895.0
0.46500 3738582.0
0.47500 2919662.0
0.48500 2405576.0
0.49500 2037961.0
0.50500 1745984.0
0.51500 1526424.0
0.52500 1361710.0
0.53500 1201380.0
0.54500 1054063.0
0.55500 949180.0
0.56500 875151.0
0.57500 786072.0
0.58500 700126.0
0.59500 634128.0
0.60500 585303.0
0.61500 543777.0
0.62500 493141.0
0.63500 443066.0
0.64500 406640.0
0.65500 379477.0
0.66500 358519.0
0.67500 331166.0
0.68500 303028.0
0.69500 277938.0
0.70500 261223.0
0.71500 248589.0
0.72500 234047.0
0.73500 217607.0
0.74500 202129.0
0.75500 188693.0
0.76500 181666.0
0.77500 174517.0
0.78500 165224.0
0.79500 153891.0
0.80500 142208.0
0.81500 134560.0
0.82500 129911.0
0.83500 125323.0
0.84500 120875.0
0.85500 113216.0
0.86500 106580.0
0.87500 100453.0
0.88500 97913.0
0.89500 94673.0
0.90500 91835.0
0.91500 85511.0
0.92500 80357.0
0.93500 76012.0
0.94500 74185.0
0.95500 71637.0
0.96500 68951.0
0.97500 66017.0
0.98500 62003.0
0.99500 58114.0
1.00500 56138.0
1.01500 55226.0
1.02500 53752.0
1.03500 51305.0
1.04500 48261.0
1.05500 45773.0
1.06500 43673.0
1.07500 43099.0
1.08500 42108.0
1.09500 40858.0
1.10500 39175.0
1.11500 36814.0
1.12500 35350.0
1.13500 33899.0
1.14500 33811.0
1.15500 32855.0
1.16500 31734.0
1.17500 30170.0
1.18500 28924.0
1.19500 27728.0
1.20500 27303.0
1.21500 26777.0
1.22500 25984.0
1.23500 24865.0
1.24500 23718.0
1.25500 22556.0
1.26500 22537.0
1.27500 21880.0
1.28500 21438.0
1.29500 21056.0
1.30500 19690.0
1.31500 19284.0
1.32500 18744.0
1.33500 18147.0
1.34500 18223.0
1.35500 17357.0
1.36500 16707.0
1.37500 16069.0
1.38500 15482.0
1.39500 15155.0
1.40500 14972.0
1.41500 14990.0
1.42500 14121.0
1.43500 13637.0
1.44500 13093.0
1.45500 12730.0
1.46500 12403.0
1.47500 12408.0
1.48500 12009.0
1.49500 11515.0
1.50500 11053.0
1.51500 10504.0
1.52500 10353.0
1.53500 10171.0
1.54500 9985.0
1.55500 10074.0
1.56500 9372.0
1.57500 9286.0
1.58500 8865.0
1.59500 8713.0
1.60500 8279.0
1.61500 8244.0
1.62500 8027.0
1.63500 7970.0
1.64500 7630.0
1.65500 7307.0
1.66500 7155.0
1.67500 7056.0
1.68500 7187.0
1.69500 6962.0
1.70500 6720.0
1.71500 6475.0
1.72500 6321.0
1.73500 6085.0
1.74500 6008.0
1.75500 5935.0
1.76500 5831.0
1.77500 5757.0
1.78500 5428.0
1.79500 5364.0
1.80500 5213.0
1.81500 5309.0
1.82500 5351.0
1.83500 5124.0
1.84500 4977.0
1.85500 4896.0
1.86500 4666.0
1.87500 4677.0
1.88500 4462.0
1.89500 4506.0
1.90500 4439.0
1.91500 4124.0
1.92500 3952.0
1.93500 3956.0
1.94500 3880.0
1.95500 3805.0
1.96500 3890.0
1.97500 3768.0
1.98500 3680.0
1.99500 3513.0
2.00500 3427.0
2.01500 3362.0
2.02500 3359.0
2.03500 3409.0
2.04500 3238.0
2.05500 3104.0
2.06500 2951.0
2.07500 3003.0
2.08500 2878.0
2.09500 2789.0
2.10500 2770.0
2.11500 2783.0
2.12500 2587.0
2.13500 2608.0
2.14500 2641.0
2.15500 2584.0
2.16500 2471.0
2.17500 2466.0
2.18500 2437.0
2.19500 2448.0
2.20500 2325.0
2.21500 2180.0
2.22500 2167.0
2.23500 2222.0
2.24500 2230.0
2.25500 2134.0
2.26500 2032.0
2.27500 1972.0
2.28500 1963.0
2.29500 1949.0
2.30500 1824.0
2.31500 1970.0
2.32500 1884.0
2.33500 1874.0
2.34500 1816.0
2.35500 1758.0
2.36500 1735.0
2.37500 1645.0
2.38500 1706.0
2.39500 1716.0
2.40500 1568.0
2.41500 1520.0
2.42500 1563.0
2.43500 1563.0
2.44500 1554.0
2.45500 1549.0
2.46500 1336.0
2.47500 1354.0
2.48500 1363.0
2.49500 1349.0
2.50500 1301.0
2.51500 1272.0
2.52500 1324.0
2.53500 1342.0
2.54500 1297.0
