0.00500 27017674.0
0.01500 29552072.0
0.02500 24933972.0
0.03500 17847624.0
0.04500 10592371.0
0.05500 5714601.0
0.06500 3472744.0
0.07500 2999757.0
0.08500 3198593.0
0.09500 3540440.0
0.10500 3924616.0
0.11500 4287452.0
0.12500 4636596.0
0.13500 4969743.0
0.14500 5319050.0
0.15500 5699384.0
0.16500 6079911.0
0.17500 6386718.0
0.18500 6655896.0
0.19500 6982998.0
0.20500 7395231.0
0.21500 7743579.0
0.22500 8018030.0
0.23500 8393550.0
0.24500 8714047.0
0.25500 9022519.0
0.26500 9304587.0
0.27500 9601773.0
0.28500 9877939.0
0.29500 10184885.0
0.30500 10507562.0
0.31500 10814205.0
0.32500 11114522.0
0.33500 11409769.0
0.34500 11669033.0
0.35500 11940536.0
0.36500 12231557.0
0.37500 12476740.0
0.38500 12540090.0
0.39500 12712240.0
0.40500 12923414.0
0.41500 13028281.0
0.42500 12551258.0
0.43500 10833951.0
0.44500 8031672.0
0.45500 5310561.0
0.46500 3718112.0
0.47500 2848529.0
0.48500 2336358.0
0.49500 1962035.0
0.50500 1648532.0
0.51500 1452858.0
0.52500 1300686.0
0.53500 1132248.0
0.54500 996331.0
0.55500 908634.0
0.56500 837081.0
0.57500 748643.0
0.58500 666057.0
0.59500 619380.0
0.60500 577972.0
0.61500 531912.0
0.62500 482542.0
0.63500 435814.0
0.64500 410066.0
0.65500 389896.0
0.66500 369233.0
0.67500 336163.0
0.68500 308610.0
0.69500 285110.0
0.70500 273392.0
0.71500 261775.0
0.72500 242438.0
0.73500 222058.0
0.74500 203665.0
0.75500 193893.0
0.76500 188151.0
0.77500 180053.0
0.78500 168366.0
0.79500 152078.0
0.80500 141689.0
0.81500 138896.0
0.82500 136052.0
0.83500 130627.0
0.84500 121699.0
0.85500 110151.0
0.86500 103918.0
0.87500 101198.0
0.88500 98877.0
0.89500 95084.0
0.90500 89230.0
0.91500 82194.0
0.92500 76360.0
0.93500 74733.0
0.94500 73826.0
0.95500 73130.0
0.96500 68519.0
0.97500 63582.0
0.98500 59043.0
0.99500 56181.0
1.00500 55286.0
1.01500 55208.0
1.02500 52764.0
1.03500 50150.0
1.04500 45968.0
1.05500 42899.0
1.06500 41500.0
1.07500 42197.0
1.08500 41563.0
1.09500 39307.0
1.10500 36941.0
1.11500 34044.0
1.12500 32625.0
1.13500 33177.0
1.14500 32993.0
1.15500 31744.0
1.16500 29810.0
1.17500 27686.0
1.18500 25969.0
1.19500 25407.0
1.20500 25636.0
1.21500 25506.0
1.22500 24385.0
1.23500 21880.0
1.24500 20601.0
1.25500 19909.0
1.26500 19627.0
1.27500 20345.0
1.28500 19888.0
1.29500 18872.0
1.30500 17535.0
1.31500 16278.0
1.32500 15986.0
1.33500 16211.0
1.34500 16064.0
1.35500 15887.0
1.36500 15225.0
1.37500 13934.0
1.38500 12903.0
1.39500 12715.0
1.40500 13019.0
1.41500 12567.0
1.42500 12429.0
1.43500 11794.0
1.44500 10785.0
1.45500 10147.0
1.46500 9979.0
1.47500 10136.0
1.48500 10253.0
1.49500 9873.0
1.50500 9087.0
1.51500 8827.0
1.52500 8311.0
1.53500 8355.0
1.54500 8485.0
1.55500 8324.0
1.56500 8075.0
1.57500 7511.0
1.58500 6978.0
1.59500 6749.0
1.60500 6394.0
1.61500 6907.0
1.62500 6760.0
1.63500 6521.0
1.64500 6081.0
1.65500 5713.0
1.66500 5624.0
1.67500 5569.0
1.68500 5635.0
1.69500 5749.0
1.70500 5398.0
1.71500 4948.0
1.72500 4413.0
1.73500 4499.0
1.74500 4596.0
1.75500 4662.0
1.76500 4685.0
1.77500 4564.0
1.78500 4033.0
1.79500 3878.0
1.80500 3768.0
1.81500 3928.0
1.82500 4026.0
1.83500 3830.0
1.84500 3808.0
1.85500 3477.0
1.86500 3231.0
1.87500 3309.0
1.88500 3293.0
1.89500 3308.0
1.90500 3320.0
1.91500 3190.0
1.92500 2906.0
1.93500 2784.0
1.94500 2813.0
1.95500 2880.0
1.96500 2823.0
1.97500 2823.0
1.98500 2603.0
1.99500 2591.0
2.00500 2392.0
2.01500 2481.0
2.02500 2627.0
2.03500 2748.0
2.04500 2723.0
2.05500 2344.0
2.06500 2155.0
2.07500 1885.0
2.08500 1875.0
2.09500 2062.0
2.10500 2046.0
2.11500 2023.0
2.12500 1980.0
2.13500 1841.0
2.14500 1752.0
2.15500 1777.0
2.16500 2041.0
2.17500 2034.0
2.18500 1853.0
2.19500 1618.0
2.20500 1608.0
2.21500 1574.0
2.22500 1387.0
2.23500 1368.0
2.24500 1538.0
2.25500 1525.0
2.26500 1513.0
2.27500 1273.0
2.28500 1253.0
2.29500 1239.0
2.30500 1389.0
2.31500 1323.0
2.32500 1248.0
2.33500 1228.0
2.34500 1049.0
2.35500 1036.0
2.36500 1117.0
2.37500 1141.0
2.38500 1276.0
2.39500 1454.0
2.40500 1314.0
2.41500 1219.0
2.42500 1224.0
2.43500 1043.0
2.44500 1029.0
2.45500 968.0
2.46500 1057.0
2.47500 1037.0
2.48500 1029.0
2.49500 995.0
2.50500 1122.0
2.51500 1185.0
2.52500 1120.0
2.53500 1036.0
2.54500 918.0
2.55500 873.0
2.56500 777.0
2.57500 769.0
2.58500 838.0
2.59500 872.0
2.60500 920.0
2.61500 867.0
2.62500 912.0
2.63500 728.0
2.64500 720.0
2.65500 774.0
2.66500 711.0
2.67500 702.0
2.68500 625.0
2.69500 523.0
2.70500 584.0
2.71500 586.0
2.72500 529.0
2.73500 604.0
2.74500 566.0
2.75500 517.0
2.76500 555.0
2.77500 454.0
2.78500 539.0
2.79500 491.0
2.80500 474.0
2.81500 561.0
2.82500 490.0
2.83500 473.0
2.84500 492.0
