0.00500 16696095.0
0.01500 18999976.0
0.02500 16238463.0
0.03500 12163556.0
0.04500 8006385.0
0.05500 4599464.0
0.06500 2515853.0
0.07500 1849801.0
0.08500 1885677.0
0.09500 2069866.0
0.10500 2281223.0
0.11500 2494992.0
0.12500 2709515.0
0.13500 2914937.0
0.14500 3140569.0
0.15500 3356839.0
0.16500 3548098.0
0.17500 3760052.0
0.18500 3958946.0
0.19500 4136181.0
0.20500 4341720.0
0.21500 4564153.0
0.22500 4753274.0
0.23500 4934047.0
0.24500 5110834.0
0.25500 5308566.0
0.26500 5501454.0
0.27500 5656282.0
0.28500 5836909.0
0.29500 5985314.0
0.30500 6147482.0
0.31500 6388990.0
0.32500 6608539.0
0.33500 6735062.0
0.34500 6926591.0
0.35500 7093085.0
0.36500 7244893.0
0.37500 7433189.0
0.38500 7634270.0
0.39500 7785089.0
0.40500 7876715.0
0.41500 7925574.0
0.42500 7709911.0
0.43500 6695502.0
0.44500 4976850.0
0.45500 3247308.0
0.46500 2241971.0
0.47500 1698497.0
0.48500 1378095.0
0.49500 1165495.0
0.50500 981458.0
0.51500 850526.0
0.52500 764381.0
0.53500 668331.0
0.54500 589229.0
0.55500 534866.0
0.56500 496480.0
0.57500 447733.0
0.58500 396865.0
0.59500 360301.0
0.60500 340459.0
0.61500 318658.0
0.62500 287535.0
0.63500 262123.0
0.64500 243336.0
0.65500 231911.0
0.66500 217718.0
0.67500 199304.0
0.68500 181008.0
0.69500 167694.0
0.70500 161076.0
0.71500 155035.0
0.72500 143904.0
0.73500 132272.0
0.74500 121556.0
0.75500 115738.0
0.76500 112658.0
0.77500 107316.0
0.78500 99894.0
0.79500 90925.0
0.80500 85297.0
0.81500 81718.0
0.82500 80443.0
0.83500 77877.0
0.84500 71922.0
0.85500 66582.0
0.86500 62388.0
0.87500 59212.0
0.88500 58616.0
0.89500 56968.0
0.90500 53385.0
0.91500 49058.0
0.92500 45492.0
0.93500 44314.0
0.94500 43845.0
0.95500 42704.0
0.96500 40592.0
0.97500 37625.0
0.98500 35219.0
0.99500 33613.0
1.00500 33098.0
1.01500 32772.0
1.02500 32132.0
1.03500 29675.0
1.04500 27416.0
1.05500 25669.0
1.06500 25503.0
1.07500 25277.0
1.08500 24707.0
1.09500 23742.0
1.10500 21843.0
1.11500 20346.0
1.12500 19293.0
1.13500 19425.0
1.14500 19528.0
1.15500 18615.0
1.16500 17707.0
1.17500 16517.0
1.18500 15339.0
1.19500 14890.0
1.20500 15123.0
1.21500 15102.0
1.22500 14323.0
1.23500 13206.0
1.24500 12326.0
1.25500 11743.0
1.26500 11604.0
1.27500 11802.0
1.28500 11590.0
1.29500 11029.0
1.30500 10250.0
1.31500 9739.0
1.32500 9327.0
1.33500 9426.0
1.34500 9442.0
1.35500 9288.0
1.36500 8531.0
1.37500 7901.0
1.38500 7508.0
1.39500 7223.0
1.40500 7317.0
1.41500 7417.0
1.42500 7180.0
1.43500 6845.0
1.44500 6145.0
1.45500 5908.0
1.46500 5951.0
1.47500 6047.0
1.48500 6063.0
1.49500 5833.0
1.50500 5508.0
1.51500 4906.0
1.52500 4739.0
1.53500 4764.0
1.54500 4863.0
1.55500 4818.0
1.56500 4889.0
1.57500 4344.0
1.58500 4101.0
1.59500 3870.0
1.60500 3794.0
1.61500 4018.0
1.62500 3842.0
1.63500 3797.0
1.64500 3447.0
1.65500 3319.0
1.66500 3257.0
1.67500 3285.0
1.68500 3328.0
1.69500 3186.0
1.70500 3073.0
1.71500 2793.0
1.72500 2621.0
1.73500 2531.0
1.74500 2589.0
1.75500 2626.0
1.76500 2581.0
1.77500 2537.0
1.78500 2348.0
1.79500 2269.0
1.80500 2139.0
1.81500 2157.0
1.82500 2207.0
1.83500 2182.0
1.84500 2073.0
1.85500 1942.0
1.86500 1958.0
1.87500 1787.0
1.88500 1817.0
1.89500 1824.0
1.90500 1809.0
1.91500 1768.0
1.92500 1666.0
1.93500 1497.0
1.94500 1490.0
1.95500 1672.0
1.96500 1620.0
1.97500 1599.0
1.98500 1484.0
1.99500 1400.0
2.00500 1395.0
2.01500 1337.0
2.02500 1384.0
2.03500 1341.0
2.04500 1314.0
2.05500 1269.0
2.06500 1168.0
2.07500 1018.0
2.08500 1049.0
2.09500 1085.0
2.10500 1065.0
2.11500 1059.0
2.12500 1082.0
2.13500 914.0
2.14500 885.0
2.15500 843.0
2.16500 855.0
2.17500 928.0
2.18500 972.0
2.19500 877.0
2.20500 802.0
2.21500 781.0
2.22500 751.0
2.23500 800.0
2.24500 826.0
2.25500 788.0
2.26500 744.0
2.27500 706.0
2.28500 640.0
2.29500 647.0
2.30500 654.0
2.31500 696.0
2.32500 635.0
2.33500 621.0
2.34500 569.0
2.35500 610.0
2.36500 575.0
2.37500 581.0
2.38500 638.0
2.39500 596.0
2.40500 653.0
2.41500 573.0
2.42500 573.0
2.43500 565.0
2.44500 585.0
2.45500 604.0
2.46500 603.0
2.47500 570.0
2.48500 521.0
2.49500 529.0
2.50500 482.0
2.51500 518.0
2.52500 557.0
2.53500 537.0
2.54500 459.0
2.55500 473.0
2.56500 495.0
2.57500 538.0
2.58500 515.0
2.59500 515.0
2.60500 494.0
2.61500 460.0
2.62500 460.0
2.63500 465.0
2.64500 454.0
2.65500 439.0
2.66500 522.0
2.67500 471.0
2.68500 453.0
2.69500 405.0
2.70500 404.0
2.71500 386.0
2.72500 336.0
2.73500 353.0
2.74500 385.0
2.75500 381.0
2.76500 359.0
2.77500 281.0
2.78500 310.0
2.79500 381.0
2.80500 376.0
2.81500 376.0
2.82500 392.0
2.83500 363.0
2.84500 316.0
2.85500 314.0
2.86500 305.0
2.87500 347.0
2.88500 399.0
2.89500 418.0
2.90500 445.0
2.91500 400.0
2.92500 415.0
2.93500 371.0
2.94500 371.0
2.95500 355.0
2.96500 359.0
2.97500 382.0
2.98500 370.0
2.99500 313.0
3.00500 261.0
3.01500 310.0
3.02500 293.0
3.03500 291.0
3.04500 273.0
3.05500 255.0
3.06500 259.0
3.07500 332.0
