0.01000 15522199.0
0.02000 15374185.0
0.03000 12184454.0
0.04000 8677994.0
0.05000 5505560.0
0.06000 3292179.0
0.07000 2490181.0
0.08000 2546376.0
0.09000 2803693.0
0.10000 3131228.0
0.11000 3450075.0
0.12000 3751499.0
0.13000 4059415.0
0.14000 4329888.0
0.15000 4655585.0
0.16000 4951820.0
0.17000 5251236.0
0.18000 5553080.0
0.19000 5820812.0
0.20000 6087817.0
0.21000 6433312.0
0.22000 6748653.0
0.23000 7034498.0
0.24000 7269867.0
0.25000 7525222.0
0.26000 7891339.0
0.27000 8127874.0
0.28000 8371541.0
0.29000 8608017.0
0.30000 8869813.0
0.31000 9155941.0
0.32000 9399282.0
0.33000 9605236.0
0.34000 9824232.0
0.35000 10080695.0
0.36000 10384924.0
0.37000 10622930.0
0.38000 10856029.0
0.39000 11036316.0
0.40000 11255877.0
0.41000 11541088.0
0.42000 11668940.0
0.43000 11853401.0
0.44000 11904000.0
0.45000 12042405.0
0.46000 12267236.0
0.47000 12426359.0
0.48000 12482498.0
0.49000 12646465.0
0.50000 12777347.0
0.51000 12955627.0
0.52000 13056017.0
0.53000 13089049.0
0.54000 13185150.0
0.55000 13123706.0
0.56000 13249896.0
0.57000 13209735.0
0.58000 13164373.0
0.59000 13123031.0
0.60000 12913578.0
0.61000 12813218.0
0.62000 12589027.0
0.63000 12245578.0
0.64000 11998475.0
0.65000 11526989.0
0.66000 10963765.0
0.67000 10252591.0
0.68000 9360766.0
0.69000 8466594.0
0.70000 7457066.0
0.71000 6502493.0
0.72000 5669100.0
0.73000 4885150.0
0.74000 4268864.0
0.75000 3733348.0
0.76000 3285437.0
0.77000 2927422.0
0.78000 2617985.0
0.79000 2370777.0
0.80000 2140382.0
0.81000 1939254.0
0.82000 1780192.0
0.83000 1603892.0
0.84000 1482708.0
0.85000 1360865.0
0.86000 1233799.0
0.87000 1149189.0
0.88000 1054802.0
0.89000 972353.0
0.90000 901759.0
0.91000 831253.0
0.92000 782699.0
0.93000 732245.0
0.94000 679149.0
0.95000 632415.0
0.96000 587290.0
0.97000 550050.0
0.98000 513519.0
0.99000 478099.0
1.00000 449118.0
1.01000 418764.0
1.02000 393019.0
1.03000 388691.0
1.04000 348044.0
1.05000 329793.0
1.06000 309200.0
1.07000 289998.0
1.08000 275136.0
1.09000 260178.0
1.10000 244471.0
1.11000 226192.0
1.12000 211703.0
1.13000 202798.0
1.14000 192102.0
1.15000 182088.0
1.16000 176091.0
1.17000 167913.0
1.18000 159500.0
1.19000 148796.0
1.20000 141836.0
1.21000 136876.0
1.22000 130262.0
1.23000 123003.0
1.24000 118137.0
1.25000 115691.0
1.26000 112425.0
1.27000 103727.0
1.28000 99077.0
1.29000 95454.0
1.30000 92947.0
1.31000 87418.0
1.32000 82855.0
1.33000 80479.0
1.34000 78340.0
1.35000 72123.0
1.36000 65534.0
1.37000 60970.0
1.38000 59223.0
1.39000 57868.0
1.40000 53853.0
1.41000 50898.0
1.42000 49601.0
1.43000 50179.0
1.44000 49465.0
1.45000 45735.0
1.46000 43359.0
1.47000 41841.0
1.48000 40481.0
1.49000 37863.0
1.50000 35896.0
1.51000 35646.0
1.52000 35082.0
1.53000 32765.0
1.54000 29865.0
1.55000 29671.0
1.56000 30220.0
1.57000 30805.0
1.58000 30018.0
1.59000 28290.0
1.60000 28022.0
1.61000 28425.0
1.62000 28591.0
1.63000 27231.0
1.64000 26836.0
1.65000 26738.0
1.66000 26132.0
1.67000 25314.0
1.68000 24375.0
1.69000 24492.0
1.70000 25016.0
1.71000 25470.0
1.72000 25076.0
1.73000 25514.0
1.74000 26566.0
1.75000 27474.0
1.76000 28555.0
1.77000 28409.0
1.78000 27850.0
1.79000 28319.0
1.80000 29778.0
1.81000 32155.0
1.82000 34686.0
1.83000 36501.0
1.84000 36413.0
1.85000 35792.0
1.86000 36701.0
1.87000 40882.0
1.88000 46362.0
1.89000 48695.0
1.90000 47238.0
1.91000 44687.0
1.92000 46545.0
1.93000 49533.0
1.94000 52868.0
1.95000 55846.0
1.96000 58429.0
1.97000 59968.0
1.98000 61373.0
1.99000 66540.0
2.00000 80807.0
2.01000 104672.0
2.02000 121118.0
2.03000 123039.0
2.04000 130604.0
2.05000 180269.0
2.06000 282598.0
2.07000 385571.0
2.08000 426733.0
2.09000 445802.0
2.10000 599136.0
2.11000 1064783.0
2.12000 1857776.0
2.13000 2694123.0
2.14000 3272751.0
2.15000 3366460.0
2.16000 2994933.0
2.17000 2296055.0
2.18000 1571869.0
2.19000 968279.0
2.20000 562102.0
2.21000 342913.0
2.22000 214348.0
2.23000 137938.0
2.24000 99650.0
2.25000 89675.0
2.26000 84180.0
2.27000 68297.0
2.28000 48344.0
2.29000 35758.0
2.30000 35497.0
2.31000 37073.0
2.32000 32589.0
2.33000 23693.0
2.34000 16860.0
2.35000 15659.0
2.36000 15780.0
2.37000 14156.0
2.38000 10578.0
2.39000 8459.0
2.40000 8363.0
2.41000 8120.0
2.42000 6888.0
2.43000 5452.0
2.44000 5506.0
2.45000 5958.0
2.46000 5898.0
2.47000 4774.0
2.48000 3903.0
2.49000 4081.0
2.50000 4606.0
2.51000 4339.0
2.52000 3366.0
2.53000 2507.0
2.54000 2572.0
2.55000 2849.0
2.56000 2517.0
2.57000 2197.0
2.58000 1969.0
2.59000 2297.0
2.60000 2199.0
2.61000 1984.0
2.62000 1593.0
2.63000 1384.0
2.64000 1477.0
2.65000 1392.0
2.66000 1198.0
2.67000 1020.0
2.68000 1190.0
2.69000 1416.0
2.70000 1306.0
2.71000 1063.0
2.72000 1095.0
2.73000 1240.0
2.74000 1324.0
2.75000 1210.0
2.76000 1071.0
2.77000 1090.0
2.78000 1212.0
2.79000 1193.0
2.80000 1157.0
2.81000 1059.0
2.82000 1071.0
2.83000 1251.0
2.84000 1169.0
2.85000 976.0
2.86000 982.0
2.87000 1049.0
2.88000 1046.0
2.89000 959.0
2.90000 846.0
2.91000 896.0
2.92000 1093.0
2.93000 1144.0
2.94000 1010.0
2.95000 884.0
2.96000 1006.0
2.97000 1205.0
2.98000 1289.0
2.99000 1013.0
3.00000 845.0
3.01000 861.0
3.02000 1021.0
3.03000 978.0
3.04000 941.0
3.05000 859.0
3.06000 940.0
3.07000 1088.0
3.08000 1106.0
3.09000 920.0
3.10000 924.0
3.11000 1240.0
3.12000 1376.0
3.13000 1358.0
3.14000 1160.0
3.15000 1084.0
3.16000 1272.0
3.17000 1455.0
3.18000 1365.0
3.19000 1088.0
3.20000 1120.0
3.21000 1338.0
3.22000 1521.0
3.23000 1361.0
3.24000 1184.0
3.25000 1221.0
3.26000 1619.0
3.27000 1811.0
3.28000 1597.0
3.29000 1178.0
3.30000 1059.0
3.31000 1372.0
3.32000 1623.0
3.33000 1435.0
3.34000 1112.0
3.35000 1191.0
3.36000 1374.0
3.37000 1612.0
3.38000 1335.0
3.39000 1090.0
3.40000 1051.0
3.41000 1208.0
3.42000 1477.0
3.43000 1278.0
3.44000 1046.0
3.45000 1109.0
3.46000 1341.0
3.47000 1534.0
3.48000 1415.0
3.49000 1079.0
3.50000 1111.0
3.51000 1465.0
3.52000 1596.0
3.53000 1344.0
3.54000 1149.0
3.55000 1164.0
3.56000 1419.0
3.57000 1530.0
3.58000 1426.0
3.59000 1244.0
3.60000 1155.0
3.61000 1307.0
3.62000 1295.0
3.63000 1255.0
3.64000 1060.0
3.65000 1025.0
3.66000 1194.0
3.67000 1324.0
3.68000 1232.0
3.69000 1145.0
3.70000 1252.0
3.71000 1553.0
3.72000 1774.0
3.73000 1564.0
3.74000 1308.0
3.75000 1241.0
3.76000 1568.0
3.77000 1728.0
3.78000 1907.0
3.79000 1668.0
3.80000 1333.0
3.81000 1344.0
3.82000 1483.0
3.83000 1693.0
3.84000 1665.0
3.85000 1730.0
3.86000 2023.0
3.87000 1915.0
3.88000 1823.0
3.89000 1691.0
3.90000 1815.0
3.91000 2484.0
3.92000 3018.0
3.93000 3286.0
3.94000 2725.0
3.95000 2403.0
3.96000 3162.0
3.97000 4684.0
3.98000 6065.0
3.99000 6183.0
4.00000 5235.0
4.01000 5460.0
4.02000 8024.0
4.03000 12824.0
4.04000 18029.0
4.05000 19363.0
4.06000 17453.0
4.07000 17294.0
4.08000 25609.0
4.09000 48743.0
4.10000 84542.0
4.11000 119511.0
4.12000 145493.0
4.13000 148182.0
4.14000 131701.0
4.15000 102423.0
4.16000 71439.0
4.17000 45695.0
4.18000 28375.0
4.19000 17643.0
4.20000 10739.0
4.21000 6496.0
4.22000 4407.0
4.23000 4111.0
4.24000 4371.0
4.25000 3807.0
4.26000 2793.0
4.27000 2176.0
4.28000 1784.0
4.29000 2087.0
4.30000 2045.0
4.31000 1829.0
4.32000 1327.0
4.33000 991.0
4.34000 939.0
4.35000 799.0
4.36000 804.0
4.37000 654.0
4.38000 479.0
4.39000 438.0
4.40000 431.0
4.41000 373.0
4.42000 278.0
4.43000 304.0
4.44000 352.0
4.45000 405.0
4.46000 373.0
4.47000 409.0
4.48000 355.0
4.49000 343.0
4.50000 432.0
4.51000 374.0
4.52000 300.0
4.53000 239.0
4.54000 223.0
4.55000 238.0
4.56000 185.0
4.57000 218.0
4.58000 173.0
4.59000 212.0
4.60000 242.0
4.61000 273.0
4.62000 220.0
4.63000 173.0
4.64000 197.0
4.65000 199.0
4.66000 189.0
4.67000 169.0
4.68000 158.0
4.69000 129.0
4.70000 111.0
4.71000 129.0
4.72000 121.0
4.73000 130.0
4.74000 77.0
4.75000 97.0
4.76000 104.0
4.77000 141.0
4.78000 96.0
4.79000 107.0
4.80000 97.0
4.81000 146.0
4.82000 186.0
4.83000 204.0
4.84000 173.0
4.85000 182.0
4.86000 163.0
4.87000 107.0
4.88000 107.0
4.89000 132.0
4.90000 123.0
4.91000 126.0
4.92000 112.0
4.93000 107.0
4.94000 117.0
4.95000 126.0
4.96000 100.0
4.97000 122.0
4.98000 195.0
4.99000 112.0
5.00000 117.0
5.01000 127.0
5.02000 135.0
5.03000 119.0
5.04000 110.0
5.05000 113.0
5.06000 123.0
5.07000 123.0
5.08000 119.0
5.09000 129.0
5.10000 75.0
5.11000 79.0
5.12000 89.0
5.13000 83.0
5.14000 87.0
5.15000 146.0
5.16000 118.0
5.17000 94.0
5.18000 107.0
5.19000 77.0
5.20000 79.0
5.21000 75.0
5.22000 52.0
5.23000 89.0
5.24000 107.0
5.25000 146.0
5.26000 145.0
5.27000 140.0
5.28000 143.0
5.29000 73.0
5.30000 72.0
5.31000 112.0
5.32000 144.0
5.33000 104.0
5.34000 84.0
5.35000 119.0
5.36000 107.0
5.37000 94.0
5.38000 144.0
5.39000 128.0
5.40000 117.0
5.41000 133.0
5.42000 178.0
5.43000 152.0
5.44000 115.0
5.45000 129.0
5.46000 87.0
5.47000 103.0
5.48000 139.0
5.49000 144.0
5.50000 137.0
5.51000 140.0
5.52000 140.0
5.53000 132.0
5.54000 140.0
5.55000 140.0
5.56000 138.0
5.57000 76.0
5.58000 78.0
5.59000 79.0
5.60000 93.0
5.61000 92.0
5.62000 114.0
5.63000 110.0
5.64000 106.0
5.65000 76.0
5.66000 90.0
5.67000 87.0
5.68000 71.0
5.69000 76.0
5.70000 94.0
5.71000 67.0
5.72000 128.0
5.73000 138.0
5.74000 107.0
5.75000 124.0
5.76000 95.0
5.77000 105.0
5.78000 116.0
5.79000 144.0
5.80000 111.0
5.81000 96.0
5.82000 78.0
5.83000 92.0
5.84000 113.0
5.85000 116.0
5.86000 104.0
5.87000 104.0
5.88000 101.0
5.89000 140.0
5.90000 104.0
5.91000 131.0
5.92000 145.0
5.93000 137.0
5.94000 144.0
5.95000 141.0
5.96000 161.0
5.97000 188.0
5.98000 234.0
5.99000 297.0
6.00000 302.0
6.01000 261.0
6.02000 310.0
6.03000 351.0
6.04000 454.0
6.05000 500.0
6.06000 544.0
6.07000 503.0
6.08000 463.0
6.09000 495.0
6.10000 777.0
6.11000 1279.0
6.12000 1821.0
6.13000 2199.0
6.14000 2510.0
6.15000 2409.0
6.16000 2162.0
6.17000 1714.0
6.18000 1317.0
6.19000 961.0
6.20000 651.0
6.21000 448.0
6.22000 307.0
6.23000 255.0
6.24000 219.0
6.25000 196.0
6.26000 212.0
6.27000 155.0
6.28000 140.0
6.29000 160.0
6.30000 132.0
6.31000 118.0
6.32000 102.0
6.33000 106.0
6.34000 96.0
6.35000 65.0
6.36000 81.0
6.37000 90.0
6.38000 122.0
6.39000 94.0
6.40000 80.0
6.41000 84.0
6.42000 88.0
6.43000 90.0
6.44000 71.0
6.45000 83.0
6.46000 68.0
6.47000 79.0
6.48000 71.0
6.49000 77.0
6.50000 81.0
6.51000 70.0
6.52000 87.0
6.53000 115.0
6.54000 137.0
6.55000 204.0
6.56000 113.0
6.57000 142.0
6.58000 110.0
6.59000 104.0
6.60000 122.0
6.61000 106.0
6.62000 93.0
6.63000 90.0
6.64000 75.0
6.65000 115.0
6.66000 81.0
6.67000 75.0
6.68000 82.0
6.69000 86.0
6.70000 105.0
6.71000 107.0
6.72000 73.0
6.73000 95.0
6.74000 91.0
6.75000 97.0
6.76000 100.0
6.77000 104.0
6.78000 109.0
6.79000 100.0
6.80000 65.0
6.81000 63.0
6.82000 77.0
6.83000 92.0
6.84000 70.0
6.85000 115.0
6.86000 81.0
6.87000 80.0
6.88000 87.0
6.89000 125.0
6.90000 153.0
6.91000 110.0
6.92000 110.0
6.93000 103.0
6.94000 151.0
6.95000 127.0
6.96000 134.0
6.97000 127.0
6.98000 133.0
6.99000 106.0
7.00000 128.0
7.01000 179.0
7.02000 107.0
7.03000 101.0
7.04000 91.0
7.05000 110.0
7.06000 89.0
7.07000 78.0
7.08000 101.0
7.09000 82.0
7.10000 85.0
7.11000 123.0
7.12000 156.0
7.13000 124.0
7.14000 128.0
7.15000 103.0
7.16000 95.0
7.17000 91.0
7.18000 96.0
7.19000 99.0
7.20000 113.0
7.21000 53.0
7.22000 65.0
7.23000 66.0
7.24000 75.0
7.25000 96.0
7.26000 70.0
7.27000 73.0
7.28000 66.0
7.29000 89.0
7.30000 84.0
7.31000 120.0
7.32000 113.0
7.33000 63.0
7.34000 77.0
7.35000 84.0
7.36000 54.0
7.37000 100.0
7.38000 65.0
7.39000 104.0
7.40000 106.0
7.41000 96.0
7.42000 124.0
7.43000 91.0
7.44000 103.0
7.45000 124.0
7.46000 92.0
7.47000 80.0
7.48000 83.0
7.49000 93.0
7.50000 85.0
7.51000 76.0
7.52000 93.0
7.53000 95.0
7.54000 82.0
7.55000 98.0
7.56000 110.0
7.57000 77.0
7.58000 64.0
7.59000 117.0
7.60000 101.0
7.61000 138.0
7.62000 136.0
7.63000 142.0
7.64000 121.0
7.65000 102.0
7.66000 88.0
7.67000 75.0
7.68000 80.0
7.69000 103.0
7.70000 68.0
7.71000 67.0
7.72000 70.0
7.73000 76.0
7.74000 110.0
7.75000 116.0
7.76000 116.0
7.77000 95.0
7.78000 105.0
7.79000 92.0
7.80000 88.0
7.81000 82.0
7.82000 87.0
7.83000 68.0
7.84000 89.0
7.85000 73.0
7.86000 73.0
7.87000 86.0
7.88000 63.0
7.89000 96.0
7.90000 118.0
7.91000 92.0
7.92000 73.0
7.93000 111.0
7.94000 117.0
7.95000 152.0
7.96000 137.0
7.97000 164.0
7.98000 163.0
7.99000 174.0
8.00000 203.0
8.01000 216.0
8.02000 248.0
8.03000 242.0
8.04000 253.0
8.05000 276.0
8.06000 344.0
8.07000 315.0
8.08000 409.0
8.09000 345.0
8.10000 369.0
8.11000 349.0
8.12000 483.0
8.13000 706.0
8.14000 904.0
8.15000 1134.0
8.16000 1300.0
8.17000 1325.0
8.18000 1169.0
8.19000 1185.0
8.20000 993.0
8.21000 915.0
8.22000 652.0
8.23000 481.0
8.24000 401.0
8.25000 279.0
8.26000 245.0
8.27000 237.0
8.28000 175.0
8.29000 144.0
8.30000 137.0
8.31000 117.0
8.32000 114.0
8.33000 114.0
8.34000 87.0
8.35000 71.0
8.36000 85.0
8.37000 84.0
8.38000 71.0
8.39000 42.0
8.40000 56.0
8.41000 69.0
8.42000 62.0
8.43000 78.0
8.44000 59.0
8.45000 77.0
8.46000 46.0
8.47000 70.0
8.48000 67.0
8.49000 56.0
8.50000 37.0
8.51000 46.0
8.52000 63.0
8.53000 64.0
8.54000 41.0
8.55000 65.0
8.56000 50.0
8.57000 74.0
8.58000 48.0
8.59000 54.0
8.60000 67.0
8.61000 62.0
8.62000 58.0
8.63000 55.0
8.64000 52.0
8.65000 50.0
8.66000 29.0
8.67000 54.0
8.68000 38.0
8.69000 29.0
8.70000 33.0
8.71000 35.0
8.72000 42.0
8.73000 36.0
8.74000 44.0
8.75000 44.0
8.76000 49.0
8.77000 29.0
8.78000 30.0
8.79000 37.0
8.80000 29.0
8.81000 29.0
8.82000 48.0
8.83000 60.0
8.84000 42.0
8.85000 43.0
8.86000 48.0
8.87000 49.0
8.88000 52.0
8.89000 54.0
8.90000 63.0
8.91000 69.0
8.92000 70.0
8.93000 48.0
8.94000 37.0
8.95000 63.0
8.96000 45.0
8.97000 57.0
8.98000 58.0
8.99000 45.0
9.00000 47.0
9.01000 61.0
9.02000 46.0
9.03000 44.0
9.04000 54.0
9.05000 43.0
9.06000 36.0
9.07000 45.0
9.08000 38.0
9.09000 46.0
9.10000 56.0
9.11000 70.0
9.12000 45.0
9.13000 56.0
9.14000 44.0
9.15000 55.0
9.16000 50.0
9.17000 58.0
9.18000 40.0
9.19000 58.0
9.20000 54.0
9.21000 62.0
9.22000 50.0
9.23000 57.0
9.24000 74.0
9.25000 51.0
9.26000 76.0
9.27000 64.0
9.28000 61.0
9.29000 59.0
9.30000 55.0
9.31000 57.0
9.32000 72.0
9.33000 77.0
9.34000 74.0
9.35000 75.0
9.36000 67.0
9.37000 72.0
9.38000 49.0
9.39000 37.0
9.40000 47.0
9.41000 63.0
9.42000 60.0
9.43000 35.0
9.44000 53.0
9.45000 46.0
9.46000 48.0
9.47000 47.0
9.48000 54.0
9.49000 40.0
9.50000 46.0
9.51000 37.0
9.52000 59.0
9.53000 55.0
9.54000 46.0
9.55000 39.0
9.56000 46.0
9.57000 54.0
9.58000 50.0
9.59000 52.0
9.60000 54.0
9.61000 60.0
9.62000 74.0
9.63000 87.0
9.64000 63.0
9.65000 58.0
9.66000 73.0
9.67000 67.0
9.68000 63.0
9.69000 70.0
9.70000 92.0
9.71000 65.0
9.72000 99.0
9.73000 65.0
9.74000 54.0
9.75000 60.0
9.76000 86.0
9.77000 118.0
9.78000 127.0
9.79000 112.0
9.80000 102.0
9.81000 74.0
9.82000 120.0
9.83000 146.0
9.84000 138.0
9.85000 87.0
9.86000 94.0
9.87000 92.0
9.88000 85.0
9.89000 60.0
9.90000 98.0
9.91000 110.0
9.92000 124.0
9.93000 97.0
9.94000 95.0
9.95000 99.0
9.96000 91.0
9.97000 90.0
9.98000 86.0
9.99000 121.0
10.00000 116.0
10.01000 115.0
10.02000 119.0
10.03000 111.0
10.04000 116.0
10.05000 142.0
10.06000 126.0
10.07000 92.0
10.08000 92.0
10.09000 116.0
10.10000 146.0
10.11000 157.0
10.12000 170.0
10.13000 149.0
10.14000 166.0
10.15000 166.0
10.16000 180.0
10.17000 245.0
10.18000 310.0
10.19000 372.0
10.20000 335.0
10.21000 369.0
10.22000 321.0
10.23000 327.0
10.24000 287.0
10.25000 262.0
10.26000 245.0
10.27000 228.0
10.28000 182.0
10.29000 164.0
10.30000 145.0
10.31000 115.0
10.32000 121.0
10.33000 107.0
10.34000 81.0
10.35000 91.0
10.36000 79.0
10.37000 89.0
10.38000 95.0
10.39000 92.0
10.40000 101.0
10.41000 103.0
10.42000 114.0
10.43000 101.0
10.44000 58.0
10.45000 78.0
10.46000 97.0
10.47000 94.0
10.48000 80.0
10.49000 71.0
10.50000 107.0
10.51000 134.0
10.52000 139.0
10.53000 160.0
10.54000 150.0
10.55000 140.0
10.56000 130.0
10.57000 104.0
10.58000 101.0
10.59000 120.0
10.60000 98.0
10.61000 110.0
10.62000 85.0
10.63000 81.0
10.64000 74.0
10.65000 94.0
10.66000 73.0
10.67000 81.0
10.68000 64.0
10.69000 77.0
10.70000 74.0
10.71000 103.0
10.72000 130.0
10.73000 96.0
10.74000 107.0
10.75000 130.0
10.76000 97.0
10.77000 107.0
10.78000 101.0
10.79000 118.0
10.80000 124.0
10.81000 138.0
10.82000 109.0
10.83000 79.0
10.84000 117.0
10.85000 97.0
10.86000 114.0
10.87000 77.0
10.88000 59.0
10.89000 68.0
10.90000 85.0
10.91000 82.0
10.92000 79.0
10.93000 71.0
10.94000 90.0
10.95000 61.0
10.96000 72.0
10.97000 83.0
10.98000 67.0
10.99000 74.0
11.00000 98.0
11.01000 85.0
11.02000 69.0
11.03000 50.0
11.04000 56.0
11.05000 62.0
11.06000 51.0
11.07000 53.0
11.08000 72.0
11.09000 77.0
11.10000 90.0
11.11000 55.0
11.12000 49.0
11.13000 45.0
11.14000 58.0
11.15000 46.0
11.16000 51.0
11.17000 61.0
11.18000 91.0
11.19000 92.0
11.20000 77.0
11.21000 87.0
11.22000 79.0
11.23000 101.0
11.24000 94.0
11.25000 178.0
11.26000 175.0
11.27000 131.0
11.28000 106.0
11.29000 72.0
11.30000 69.0
11.31000 68.0
11.32000 92.0
11.33000 96.0
11.34000 85.0
11.35000 93.0
11.36000 160.0
11.37000 77.0
11.38000 84.0
11.39000 118.0
11.40000 96.0
11.41000 123.0
11.42000 114.0
11.43000 109.0
11.44000 102.0
11.45000 144.0
11.46000 152.0
11.47000 126.0
11.48000 115.0
11.49000 117.0
11.50000 62.0
11.51000 54.0
11.52000 70.0
11.53000 71.0
11.54000 62.0
11.55000 54.0
11.56000 60.0
11.57000 55.0
11.58000 56.0
11.59000 45.0
11.60000 71.0
11.61000 60.0
11.62000 85.0
11.63000 79.0
11.64000 51.0
11.65000 76.0
11.66000 114.0
11.67000 75.0
11.68000 72.0
11.69000 73.0
11.70000 72.0
11.71000 65.0
11.72000 45.0
11.73000 59.0
11.74000 80.0
11.75000 87.0
11.76000 93.0
11.77000 73.0
11.78000 70.0
11.79000 61.0
11.80000 41.0
11.81000 55.0
11.82000 73.0
11.83000 59.0
11.84000 35.0
11.85000 60.0
11.86000 45.0
11.87000 50.0
11.88000 48.0
11.89000 52.0
11.90000 70.0
11.91000 47.0
11.92000 54.0
11.93000 41.0
11.94000 72.0
11.95000 55.0
11.96000 32.0
11.97000 60.0
11.98000 53.0
11.99000 98.0
