0.01000 54830324.0
0.02000 55596824.0
0.03000 42367964.0
0.04000 26145864.0
0.05000 12978669.0
0.06000 5825587.0
0.07000 3688651.0
0.08000 3693102.0
0.09000 4153341.0
0.10000 4692139.0
0.11000 5215607.0
0.12000 5771043.0
0.13000 6284011.0
0.14000 6786862.0
0.15000 7303335.0
0.16000 7797012.0
0.17000 8303302.0
0.18000 8836315.0
0.19000 9288482.0
0.20000 9800391.0
0.21000 10323496.0
0.22000 10910833.0
0.23000 11442569.0
0.24000 11941204.0
0.25000 12422591.0
0.26000 12882744.0
0.27000 13354151.0
0.28000 13773656.0
0.29000 14191474.0
0.30000 14637979.0
0.31000 15174524.0
0.32000 15539261.0
0.33000 15989645.0
0.34000 16461789.0
0.35000 17010018.0
0.36000 17310352.0
0.37000 17806194.0
0.38000 18231048.0
0.39000 18548460.0
0.40000 18920368.0
0.41000 19202384.0
0.42000 19557478.0
0.43000 19943664.0
0.44000 20233148.0
0.45000 20631236.0
0.46000 20825002.0
0.47000 21189556.0
0.48000 21680522.0
0.49000 22050160.0
0.50000 22369320.0
0.51000 22590048.0
0.52000 22858696.0
0.53000 23106328.0
0.54000 23321762.0
0.55000 23654364.0
0.56000 23740498.0
0.57000 23934662.0
0.58000 24072846.0
0.59000 24196194.0
0.60000 24268360.0
0.61000 24208102.0
0.62000 24107320.0
0.63000 23958108.0
0.64000 23662174.0
0.65000 23067524.0
0.66000 22454152.0
0.67000 21361474.0
0.68000 19707836.0
0.69000 17067624.0
0.70000 13958553.0
0.71000 11134973.0
0.72000 8734579.0
0.73000 6900666.0
0.74000 5648739.0
0.75000 4617580.0
0.76000 3883044.0
0.77000 3279199.0
0.78000 2799410.0
0.79000 2449157.0
0.80000 2149964.0
0.81000 1897450.0
0.82000 1667911.0
0.83000 1475461.0
0.84000 1343723.0
0.85000 1221964.0
0.86000 1112379.0
0.87000 1009235.0
0.88000 904210.0
0.89000 794385.0
0.90000 712541.0
0.91000 643319.0
0.92000 583303.0
0.93000 527386.0
0.94000 482108.0
0.95000 444056.0
0.96000 411329.0
0.97000 384708.0
0.98000 355058.0
0.99000 334423.0
1.00000 317410.0
1.01000 303788.0
1.02000 288780.0
1.03000 269976.0
1.04000 248436.0
1.05000 229058.0
1.06000 210174.0
1.07000 192897.0
1.08000 175786.0
1.09000 161157.0
1.10000 150228.0
1.11000 142407.0
1.12000 135104.0
1.13000 130025.0
1.14000 125550.0
1.15000 119062.0
1.16000 110315.0
1.17000 100001.0
1.18000 91843.0
1.19000 85783.0
1.20000 81701.0
1.21000 82063.0
1.22000 83152.0
1.23000 82699.0
1.24000 83733.0
1.25000 85876.0
1.26000 86325.0
1.27000 82244.0
1.28000 73256.0
1.29000 67125.0
1.30000 64240.0
1.31000 63001.0
1.32000 62341.0
1.33000 57394.0
1.34000 52928.0
1.35000 51125.0
1.36000 51861.0
1.37000 51252.0
1.38000 48877.0
1.39000 48165.0
1.40000 47807.0
1.41000 47771.0
1.42000 46894.0
1.43000 47401.0
1.44000 49255.0
1.45000 50617.0
1.46000 51008.0
1.47000 49857.0
1.48000 47628.0
1.49000 47152.0
1.50000 47921.0
1.51000 46007.0
1.52000 42997.0
1.53000 40892.0
1.54000 42188.0
1.55000 48886.0
1.56000 54862.0
1.57000 58483.0
1.58000 59397.0
1.59000 57424.0
1.60000 56000.0
1.61000 57784.0
1.62000 60984.0
1.63000 65708.0
1.64000 70459.0
1.65000 76069.0
1.66000 80149.0
1.67000 81635.0
1.68000 85030.0
1.69000 93628.0
1.70000 104086.0
1.71000 123643.0
1.72000 146858.0
1.73000 174350.0
1.74000 193736.0
1.75000 199045.0
1.76000 207366.0
1.77000 222383.0
1.78000 241454.0
1.79000 264014.0
1.80000 294895.0
1.81000 339468.0
1.82000 405196.0
1.83000 505486.0
1.84000 643697.0
1.85000 883300.0
1.86000 1325502.0
1.87000 2065480.0
1.88000 3624216.0
1.89000 6742658.0
1.90000 12028519.0
1.91000 18593736.0
1.92000 22606896.0
1.93000 21381644.0
1.94000 15064285.0
1.95000 7728851.0
1.96000 3274426.0
1.97000 1732662.0
1.98000 1077101.0
1.99000 754848.0
2.00000 553292.0
2.01000 416427.0
2.02000 326305.0
2.03000 256126.0
2.04000 198567.0
2.05000 155841.0
2.06000 127721.0
2.07000 105796.0
2.08000 89218.0
2.09000 74075.0
2.10000 61323.0
2.11000 54213.0
2.12000 53710.0
2.13000 55008.0
2.14000 51886.0
2.15000 46507.0
2.16000 41842.0
2.17000 36937.0
2.18000 32147.0
2.19000 29582.0
2.20000 26830.0
2.21000 24916.0
2.22000 22638.0
2.23000 20825.0
2.24000 18886.0
2.25000 16653.0
2.26000 15059.0
2.27000 13288.0
2.28000 12217.0
2.29000 11536.0
2.30000 12193.0
2.31000 12083.0
2.32000 10576.0
2.33000 8384.0
2.34000 6936.0
2.35000 6423.0
2.36000 6453.0
2.37000 5981.0
2.38000 5002.0
2.39000 4044.0
2.40000 3926.0
2.41000 3488.0
2.42000 3430.0
2.43000 3532.0
2.44000 3646.0
2.45000 3432.0
2.46000 3188.0
2.47000 2854.0
2.48000 2895.0
2.49000 2778.0
2.50000 2463.0
2.51000 2195.0
2.52000 2083.0
2.53000 2047.0
2.54000 1878.0
2.55000 1649.0
2.56000 1555.0
2.57000 1789.0
2.58000 1808.0
2.59000 1681.0
2.60000 1723.0
2.61000 1922.0
2.62000 2416.0
2.63000 2307.0
2.64000 2154.0
2.65000 2111.0
2.66000 2014.0
2.67000 1779.0
2.68000 1417.0
2.69000 1383.0
2.70000 1385.0
2.71000 1538.0
2.72000 1481.0
2.73000 1456.0
2.74000 1788.0
2.75000 1963.0
2.76000 2020.0
2.77000 1845.0
2.78000 1817.0
2.79000 1948.0
2.80000 2027.0
2.81000 1783.0
2.82000 1749.0
2.83000 2028.0
2.84000 2324.0
2.85000 2309.0
2.86000 2093.0
2.87000 2134.0
2.88000 2358.0
2.89000 2182.0
2.90000 1899.0
2.91000 1854.0
2.92000 2184.0
2.93000 2223.0
2.94000 2054.0
2.95000 1774.0
2.96000 1716.0
2.97000 2029.0
2.98000 2042.0
2.99000 2077.0
3.00000 2245.0
3.01000 2415.0
3.02000 2619.0
3.03000 2554.0
3.04000 2573.0
3.05000 2824.0
3.06000 2776.0
3.07000 2594.0
3.08000 2518.0
3.09000 2712.0
3.10000 3047.0
3.11000 3276.0
3.12000 3229.0
3.13000 3398.0
3.14000 3586.0
3.15000 3201.0
3.16000 2754.0
3.17000 2569.0
3.18000 2585.0
3.19000 2905.0
3.20000 2865.0
3.21000 2825.0
3.22000 2895.0
3.23000 3128.0
3.24000 3073.0
3.25000 3114.0
3.26000 3401.0
3.27000 3581.0
3.28000 3798.0
3.29000 3710.0
3.30000 3661.0
3.31000 3924.0
3.32000 4246.0
3.33000 3983.0
3.34000 3741.0
3.35000 3934.0
3.36000 4348.0
3.37000 4747.0
3.38000 4672.0
3.39000 4625.0
3.40000 4789.0
3.41000 4987.0
3.42000 5139.0
3.43000 5199.0
3.44000 5713.0
3.45000 6435.0
3.46000 6833.0
3.47000 6716.0
3.48000 6962.0
3.49000 7369.0
3.50000 7459.0
3.51000 7681.0
3.52000 7763.0
3.53000 7871.0
3.54000 8549.0
3.55000 10162.0
3.56000 11692.0
3.57000 14151.0
3.58000 18781.0
3.59000 25842.0
3.60000 37322.0
3.61000 59250.0
3.62000 109224.0
3.63000 225311.0
3.64000 394477.0
3.65000 553284.0
3.66000 571271.0
3.67000 445213.0
3.68000 263438.0
3.69000 149118.0
3.70000 94942.0
3.71000 63071.0
3.72000 41547.0
3.73000 25109.0
3.74000 15396.0
3.75000 10578.0
3.76000 8603.0
3.77000 7615.0
3.78000 6172.0
3.79000 4628.0
3.80000 3906.0
3.81000 3617.0
3.82000 3014.0
3.83000 2529.0
3.84000 2277.0
3.85000 2160.0
3.86000 1939.0
3.87000 1811.0
3.88000 1756.0
3.89000 1813.0
3.90000 1965.0
3.91000 1952.0
3.92000 1772.0
3.93000 1573.0
3.94000 1464.0
3.95000 1484.0
3.96000 1416.0
3.97000 1361.0
3.98000 1520.0
3.99000 1624.0
4.00000 1521.0
4.01000 1376.0
4.02000 1314.0
4.03000 1328.0
4.04000 1364.0
4.05000 1224.0
4.06000 1217.0
4.07000 1500.0
4.08000 1499.0
4.09000 1381.0
4.10000 1083.0
4.11000 1002.0
4.12000 1189.0
4.13000 1265.0
4.14000 1218.0
4.15000 1120.0
4.16000 1175.0
4.17000 1242.0
4.18000 1214.0
4.19000 1188.0
4.20000 1169.0
4.21000 1091.0
4.22000 1024.0
4.23000 1048.0
4.24000 1050.0
4.25000 1170.0
4.26000 1106.0
4.27000 990.0
4.28000 936.0
4.29000 886.0
4.30000 924.0
4.31000 902.0
4.32000 809.0
4.33000 885.0
4.34000 909.0
4.35000 886.0
4.36000 769.0
4.37000 801.0
4.38000 824.0
4.39000 844.0
4.40000 929.0
4.41000 878.0
4.42000 884.0
4.43000 926.0
4.44000 1010.0
4.45000 937.0
4.46000 928.0
4.47000 882.0
4.48000 963.0
4.49000 882.0
4.50000 761.0
4.51000 796.0
4.52000 763.0
4.53000 894.0
4.54000 829.0
4.55000 851.0
4.56000 895.0
4.57000 912.0
4.58000 902.0
4.59000 905.0
4.60000 823.0
4.61000 805.0
4.62000 768.0
4.63000 666.0
4.64000 677.0
4.65000 778.0
4.66000 740.0
4.67000 822.0
4.68000 809.0
4.69000 869.0
4.70000 988.0
4.71000 964.0
4.72000 991.0
4.73000 938.0
4.74000 946.0
4.75000 918.0
4.76000 947.0
4.77000 830.0
4.78000 908.0
4.79000 951.0
4.80000 899.0
4.81000 822.0
4.82000 736.0
4.83000 705.0
4.84000 765.0
4.85000 763.0
4.86000 797.0
4.87000 869.0
4.88000 771.0
4.89000 766.0
4.90000 740.0
4.91000 780.0
4.92000 751.0
4.93000 773.0
4.94000 755.0
4.95000 723.0
4.96000 733.0
4.97000 827.0
4.98000 661.0
4.99000 608.0
5.00000 546.0
5.01000 535.0
5.02000 591.0
5.03000 597.0
5.04000 676.0
5.05000 676.0
5.06000 599.0
5.07000 619.0
5.08000 588.0
5.09000 587.0
5.10000 556.0
5.11000 580.0
5.12000 649.0
5.13000 664.0
5.14000 715.0
5.15000 706.0
5.16000 629.0
5.17000 599.0
5.18000 669.0
5.19000 767.0
5.20000 879.0
5.21000 1024.0
5.22000 1174.0
5.23000 1127.0
5.24000 1096.0
5.25000 1005.0
5.26000 931.0
5.27000 921.0
5.28000 960.0
5.29000 1052.0
5.30000 1056.0
5.31000 1193.0
5.32000 1303.0
5.33000 1569.0
5.34000 2052.0
5.35000 2812.0
5.36000 4211.0
5.37000 6483.0
5.38000 9974.0
5.39000 17782.0
5.40000 35808.0
5.41000 65727.0
5.42000 97036.0
5.43000 114285.0
5.44000 104396.0
5.45000 74848.0
5.46000 50954.0
5.47000 37624.0
5.48000 31020.0
5.49000 25295.0
5.50000 19170.0
5.51000 13928.0
5.52000 9646.0
5.53000 6677.0
5.54000 4310.0
5.55000 3059.0
5.56000 2358.0
5.57000 1976.0
5.58000 1640.0
5.59000 1203.0
5.60000 885.0
5.61000 690.0
5.62000 574.0
5.63000 466.0
5.64000 449.0
5.65000 471.0
5.66000 491.0
5.67000 443.0
5.68000 401.0
5.69000 448.0
5.70000 413.0
5.71000 462.0
5.72000 411.0
5.73000 436.0
5.74000 373.0
5.75000 342.0
5.76000 346.0
5.77000 359.0
5.78000 308.0
5.79000 322.0
5.80000 298.0
5.81000 355.0
5.82000 312.0
5.83000 303.0
5.84000 306.0
5.85000 256.0
5.86000 226.0
5.87000 260.0
5.88000 263.0
5.89000 335.0
5.90000 359.0
5.91000 291.0
5.92000 305.0
5.93000 264.0
5.94000 228.0
5.95000 199.0
5.96000 237.0
5.97000 236.0
5.98000 256.0
5.99000 265.0
6.00000 312.0
6.01000 306.0
6.02000 333.0
6.03000 305.0
6.04000 234.0
6.05000 213.0
6.06000 241.0
6.07000 228.0
6.08000 232.0
6.09000 227.0
6.10000 205.0
6.11000 271.0
6.12000 216.0
6.13000 280.0
6.14000 246.0
6.15000 251.0
6.16000 242.0
6.17000 234.0
6.18000 211.0
6.19000 215.0
6.20000 209.0
6.21000 212.0
6.22000 206.0
6.23000 218.0
6.24000 206.0
6.25000 214.0
6.26000 246.0
6.27000 191.0
6.28000 206.0
6.29000 193.0
6.30000 200.0
6.31000 263.0
6.32000 229.0
6.33000 202.0
6.34000 162.0
6.35000 164.0
6.36000 186.0
6.37000 191.0
6.38000 224.0
6.39000 216.0
6.40000 203.0
6.41000 240.0
6.42000 206.0
6.43000 181.0
6.44000 210.0
6.45000 198.0
6.46000 167.0
6.47000 182.0
6.48000 183.0
6.49000 157.0
6.50000 161.0
6.51000 212.0
6.52000 231.0
6.53000 229.0
6.54000 227.0
6.55000 226.0
6.56000 213.0
6.57000 263.0
6.58000 200.0
6.59000 225.0
6.60000 236.0
6.61000 244.0
6.62000 305.0
6.63000 205.0
6.64000 165.0
6.65000 203.0
6.66000 191.0
6.67000 178.0
6.68000 210.0
6.69000 272.0
6.70000 228.0
6.71000 219.0
6.72000 189.0
6.73000 208.0
6.74000 218.0
6.75000 219.0
6.76000 168.0
6.77000 205.0
6.78000 273.0
6.79000 221.0
6.80000 187.0
6.81000 188.0
6.82000 150.0
6.83000 208.0
6.84000 192.0
6.85000 172.0
6.86000 151.0
6.87000 182.0
6.88000 175.0
6.89000 186.0
6.90000 159.0
6.91000 147.0
6.92000 170.0
6.93000 199.0
6.94000 211.0
6.95000 188.0
6.96000 149.0
6.97000 177.0
6.98000 213.0
6.99000 257.0
7.00000 286.0
7.01000 330.0
7.02000 310.0
7.03000 296.0
7.04000 370.0
7.05000 341.0
7.06000 369.0
7.07000 335.0
7.08000 297.0
7.09000 327.0
7.10000 378.0
7.11000 452.0
7.12000 478.0
7.13000 642.0
7.14000 1039.0
7.15000 1583.0
7.16000 2595.0
7.17000 4359.0
7.18000 8633.0
7.19000 15501.0
7.20000 25074.0
7.21000 32513.0
7.22000 33176.0
7.23000 27357.0
7.24000 19923.0
7.25000 14509.0
7.26000 11522.0
7.27000 10402.0
7.28000 9783.0
7.29000 8773.0
7.30000 7404.0
7.31000 5802.0
7.32000 4386.0
7.33000 3110.0
7.34000 2137.0
7.35000 1542.0
7.36000 1175.0
7.37000 962.0
7.38000 846.0
7.39000 710.0
7.40000 591.0
7.41000 504.0
7.42000 442.0
7.43000 383.0
7.44000 377.0
7.45000 353.0
7.46000 243.0
7.47000 234.0
7.48000 236.0
7.49000 265.0
7.50000 262.0
7.51000 206.0
7.52000 208.0
7.53000 214.0
7.54000 185.0
7.55000 164.0
7.56000 190.0
7.57000 208.0
7.58000 148.0
7.59000 164.0
7.60000 178.0
7.61000 222.0
7.62000 203.0
7.63000 221.0
7.64000 190.0
7.65000 186.0
7.66000 233.0
7.67000 205.0
7.68000 203.0
7.69000 196.0
7.70000 230.0
7.71000 196.0
7.72000 180.0
7.73000 217.0
7.74000 206.0
7.75000 244.0
7.76000 155.0
7.77000 130.0
7.78000 144.0
7.79000 167.0
7.80000 191.0
7.81000 174.0
7.82000 174.0
7.83000 173.0
7.84000 224.0
7.85000 216.0
7.86000 214.0
7.87000 190.0
7.88000 200.0
7.89000 181.0
7.90000 115.0
7.91000 162.0
7.92000 203.0
7.93000 227.0
7.94000 222.0
7.95000 189.0
7.96000 201.0
7.97000 178.0
7.98000 202.0
7.99000 241.0
8.00000 204.0
8.01000 152.0
8.02000 226.0
8.03000 215.0
8.04000 209.0
8.05000 144.0
8.06000 100.0
8.07000 101.0
8.08000 113.0
8.09000 124.0
8.10000 111.0
8.11000 89.0
8.12000 120.0
8.13000 185.0
8.14000 209.0
8.15000 187.0
8.16000 208.0
8.17000 224.0
8.18000 237.0
8.19000 191.0
8.20000 178.0
8.21000 202.0
8.22000 199.0
8.23000 174.0
8.24000 187.0
8.25000 147.0
8.26000 114.0
8.27000 118.0
8.28000 134.0
8.29000 128.0
8.30000 168.0
8.31000 236.0
8.32000 175.0
8.33000 166.0
8.34000 162.0
8.35000 128.0
8.36000 110.0
8.37000 139.0
8.38000 160.0
8.39000 173.0
8.40000 177.0
8.41000 165.0
8.42000 175.0
8.43000 123.0
8.44000 106.0
8.45000 148.0
8.46000 104.0
8.47000 116.0
8.48000 112.0
8.49000 105.0
8.50000 83.0
8.51000 81.0
8.52000 106.0
8.53000 98.0
8.54000 117.0
8.55000 165.0
8.56000 195.0
8.57000 151.0
8.58000 144.0
8.59000 129.0
8.60000 165.0
8.61000 133.0
8.62000 156.0
8.63000 149.0
8.64000 211.0
8.65000 217.0
8.66000 164.0
8.67000 204.0
8.68000 128.0
8.69000 197.0
8.70000 105.0
8.71000 128.0
8.72000 134.0
8.73000 149.0
8.74000 167.0
8.75000 153.0
8.76000 137.0
8.77000 117.0
8.78000 149.0
8.79000 114.0
8.80000 130.0
8.81000 127.0
8.82000 144.0
8.83000 157.0
8.84000 138.0
8.85000 156.0
8.86000 152.0
8.87000 165.0
8.88000 168.0
8.89000 185.0
8.90000 163.0
8.91000 181.0
8.92000 169.0
8.93000 232.0
8.94000 271.0
8.95000 370.0
8.96000 390.0
8.97000 488.0
8.98000 783.0
8.99000 1071.0
9.00000 1309.0
9.01000 1356.0
9.02000 1187.0
9.03000 1043.0
9.04000 845.0
9.05000 588.0
9.06000 467.0
9.07000 490.0
9.08000 493.0
9.09000 479.0
9.10000 462.0
9.11000 461.0
9.12000 416.0
9.13000 391.0
9.14000 301.0
9.15000 236.0
9.16000 166.0
9.17000 183.0
9.18000 144.0
9.19000 137.0
9.20000 143.0
9.21000 115.0
9.22000 140.0
9.23000 146.0
9.24000 141.0
9.25000 151.0
9.26000 163.0
9.27000 182.0
9.28000 129.0
9.29000 125.0
9.30000 131.0
9.31000 116.0
9.32000 125.0
9.33000 145.0
9.34000 164.0
9.35000 150.0
9.36000 179.0
9.37000 239.0
9.38000 189.0
9.39000 221.0
9.40000 177.0
9.41000 160.0
9.42000 190.0
9.43000 206.0
9.44000 233.0
9.45000 195.0
9.46000 177.0
9.47000 145.0
9.48000 106.0
9.49000 155.0
9.50000 131.0
9.51000 149.0
9.52000 148.0
9.53000 120.0
9.54000 116.0
9.55000 145.0
9.56000 133.0
9.57000 124.0
9.58000 106.0
9.59000 101.0
9.60000 164.0
9.61000 153.0
9.62000 161.0
9.63000 177.0
9.64000 135.0
9.65000 110.0
9.66000 81.0
9.67000 115.0
9.68000 132.0
9.69000 111.0
9.70000 104.0
9.71000 114.0
9.72000 91.0
9.73000 93.0
9.74000 98.0
9.75000 85.0
9.76000 128.0
9.77000 133.0
9.78000 162.0
9.79000 135.0
9.80000 156.0
9.81000 128.0
9.82000 90.0
9.83000 97.0
9.84000 86.0
9.85000 96.0
9.86000 82.0
9.87000 81.0
9.88000 96.0
9.89000 106.0
9.90000 72.0
9.91000 91.0
9.92000 127.0
9.93000 98.0
9.94000 123.0
9.95000 111.0
9.96000 171.0
9.97000 177.0
9.98000 183.0
9.99000 114.0
10.00000 120.0
10.01000 105.0
10.02000 121.0
10.03000 114.0
10.04000 141.0
10.05000 223.0
10.06000 188.0
10.07000 140.0
10.08000 128.0
10.09000 115.0
10.10000 106.0
10.11000 113.0
10.12000 165.0
10.13000 133.0
10.14000 102.0
10.15000 99.0
10.16000 119.0
10.17000 78.0
10.18000 96.0
10.19000 83.0
10.20000 115.0
10.21000 154.0
10.22000 134.0
10.23000 120.0
10.24000 129.0
10.25000 117.0
10.26000 131.0
10.27000 129.0
10.28000 145.0
10.29000 132.0
10.30000 146.0
10.31000 115.0
10.32000 149.0
10.33000 132.0
10.34000 138.0
10.35000 128.0
10.36000 116.0
10.37000 101.0
10.38000 112.0
10.39000 57.0
10.40000 100.0
10.41000 74.0
10.42000 85.0
10.43000 97.0
10.44000 115.0
10.45000 122.0
10.46000 103.0
10.47000 111.0
10.48000 137.0
10.49000 139.0
10.50000 107.0
10.51000 108.0
10.52000 140.0
10.53000 98.0
10.54000 99.0
10.55000 103.0
10.56000 99.0
10.57000 115.0
10.58000 99.0
10.59000 131.0
10.60000 120.0
10.61000 118.0
10.62000 140.0
10.63000 129.0
10.64000 127.0
10.65000 145.0
10.66000 134.0
10.67000 134.0
10.68000 132.0
10.69000 128.0
10.70000 153.0
10.71000 155.0
10.72000 150.0
10.73000 218.0
10.74000 233.0
10.75000 296.0
10.76000 483.0
10.77000 636.0
10.78000 953.0
10.79000 1167.0
10.80000 1372.0
10.81000 1270.0
10.82000 1192.0
10.83000 993.0
10.84000 793.0
10.85000 636.0
10.86000 496.0
10.87000 458.0
10.88000 486.0
10.89000 461.0
10.90000 455.0
10.91000 484.0
10.92000 425.0
10.93000 432.0
10.94000 379.0
10.95000 287.0
10.96000 255.0
10.97000 185.0
10.98000 226.0
10.99000 216.0
11.00000 183.0
11.01000 216.0
11.02000 180.0
11.03000 168.0
11.04000 183.0
11.05000 200.0
11.06000 135.0
11.07000 122.0
11.08000 136.0
11.09000 117.0
11.10000 105.0
11.11000 93.0
11.12000 91.0
11.13000 97.0
11.14000 113.0
11.15000 161.0
11.16000 123.0
11.17000 97.0
11.18000 123.0
11.19000 139.0
11.20000 102.0
11.21000 137.0
11.22000 122.0
11.23000 136.0
11.24000 139.0
11.25000 108.0
11.26000 100.0
11.27000 88.0
11.28000 84.0
11.29000 125.0
11.30000 114.0
11.31000 102.0
11.32000 100.0
11.33000 113.0
11.34000 100.0
11.35000 90.0
11.36000 92.0
11.37000 72.0
11.38000 81.0
11.39000 80.0
11.40000 63.0
11.41000 72.0
11.42000 86.0
11.43000 39.0
11.44000 57.0
11.45000 49.0
11.46000 75.0
11.47000 85.0
11.48000 94.0
11.49000 91.0
11.50000 87.0
11.51000 111.0
11.52000 134.0
11.53000 125.0
11.54000 119.0
11.55000 102.0
11.56000 99.0
11.57000 86.0
11.58000 68.0
11.59000 69.0
11.60000 74.0
11.61000 93.0
11.62000 105.0
11.63000 76.0
11.64000 99.0
11.65000 82.0
11.66000 128.0
11.67000 159.0
11.68000 133.0
11.69000 144.0
11.70000 161.0
11.71000 169.0
11.72000 144.0
11.73000 117.0
11.74000 124.0
11.75000 195.0
11.76000 193.0
11.77000 214.0
11.78000 195.0
11.79000 142.0
11.80000 170.0
11.81000 195.0
11.82000 191.0
11.83000 147.0
11.84000 132.0
11.85000 111.0
11.86000 185.0
11.87000 213.0
11.88000 161.0
11.89000 157.0
11.90000 122.0
11.91000 85.0
11.92000 102.0
11.93000 81.0
11.94000 106.0
11.95000 95.0
11.96000 117.0
11.97000 118.0
11.98000 112.0
11.99000 104.0
12.00000 115.0
12.01000 82.0
12.02000 119.0
12.03000 101.0
12.04000 96.0
12.05000 126.0
12.06000 93.0
12.07000 117.0
12.08000 101.0
12.09000 130.0
12.10000 110.0
12.11000 116.0
12.12000 98.0
12.13000 108.0
12.14000 110.0
12.15000 105.0
12.16000 112.0
12.17000 110.0
12.18000 84.0
12.19000 76.0
12.20000 61.0
12.21000 82.0
12.22000 97.0
12.23000 89.0
12.24000 110.0
12.25000 120.0
12.26000 117.0
12.27000 84.0
12.28000 116.0
12.29000 115.0
12.30000 108.0
12.31000 83.0
12.32000 81.0
12.33000 96.0
12.34000 67.0
12.35000 82.0
12.36000 162.0
12.37000 107.0
12.38000 100.0
12.39000 126.0
12.40000 90.0
12.41000 112.0
12.42000 109.0
12.43000 91.0
12.44000 94.0
12.45000 134.0
12.46000 101.0
12.47000 65.0
12.48000 65.0
12.49000 115.0
12.50000 99.0
12.51000 111.0
12.52000 97.0
12.53000 109.0
12.54000 109.0
12.55000 114.0
12.56000 106.0
12.57000 151.0
12.58000 148.0
12.59000 160.0
12.60000 232.0
12.61000 216.0
12.62000 176.0
12.63000 172.0
12.64000 151.0
12.65000 117.0
12.66000 129.0
12.67000 89.0
12.68000 109.0
12.69000 101.0
12.70000 153.0
12.71000 178.0
12.72000 226.0
12.73000 213.0
12.74000 267.0
12.75000 321.0
12.76000 310.0
12.77000 217.0
12.78000 183.0
12.79000 187.0
12.80000 180.0
12.81000 195.0
12.82000 187.0
12.83000 173.0
12.84000 138.0
12.85000 175.0
12.86000 136.0
12.87000 138.0
12.88000 205.0
12.89000 231.0
12.90000 194.0
12.91000 140.0
12.92000 139.0
12.93000 203.0
12.94000 221.0
12.95000 218.0
12.96000 131.0
12.97000 142.0
12.98000 212.0
12.99000 206.0
13.00000 193.0
13.01000 159.0
13.02000 150.0
13.03000 159.0
13.04000 189.0
13.05000 181.0
13.06000 129.0
13.07000 136.0
13.08000 126.0
13.09000 179.0
13.10000 134.0
13.11000 127.0
13.12000 127.0
13.13000 168.0
13.14000 187.0
13.15000 141.0
13.16000 180.0
13.17000 146.0
13.18000 173.0
13.19000 115.0
13.20000 161.0
13.21000 176.0
13.22000 172.0
13.23000 170.0
13.24000 172.0
13.25000 180.0
13.26000 152.0
13.27000 194.0
13.28000 148.0
13.29000 185.0
13.30000 201.0
13.31000 238.0
13.32000 231.0
13.33000 230.0
13.34000 243.0
13.35000 265.0
13.36000 234.0
13.37000 219.0
13.38000 241.0
13.39000 256.0
13.40000 267.0
13.41000 230.0
13.42000 206.0
13.43000 222.0
