0.01000 63865368.0
0.02000 64325572.0
0.03000 52683484.0
0.04000 35360968.0
0.05000 20854422.0
0.06000 12317238.0
0.07000 9065258.0
0.08000 8681144.0
0.09000 9154121.0
0.10000 10010429.0
0.11000 10977781.0
0.12000 11753556.0
0.13000 12696015.0
0.14000 13539618.0
0.15000 14370904.0
0.16000 15296579.0
0.17000 16065929.0
0.18000 16849612.0
0.19000 17612840.0
0.20000 18227404.0
0.21000 19054112.0
0.22000 19743352.0
0.23000 20423656.0
0.24000 21103554.0
0.25000 21796560.0
0.26000 22655300.0
0.27000 23229616.0
0.28000 23864126.0
0.29000 24539600.0
0.30000 25068574.0
0.31000 25839076.0
0.32000 26489524.0
0.33000 27008688.0
0.34000 27729852.0
0.35000 28192030.0
0.36000 28838576.0
0.37000 29507588.0
0.38000 30031940.0
0.39000 30564806.0
0.40000 30906276.0
0.41000 31574772.0
0.42000 32016292.0
0.43000 32426076.0
0.44000 32799348.0
0.45000 33175516.0
0.46000 33394530.0
0.47000 33923308.0
0.48000 34288748.0
0.49000 34572792.0
0.50000 34831832.0
0.51000 35151044.0
0.52000 35614896.0
0.53000 35903100.0
0.54000 36125008.0
0.55000 36166316.0
0.56000 36141224.0
0.57000 36487064.0
0.58000 36563128.0
0.59000 36611000.0
0.60000 36775908.0
0.61000 36670708.0
0.62000 36660132.0
0.63000 36532004.0
0.64000 36273760.0
0.65000 35916088.0
0.66000 35148368.0
0.67000 33678568.0
0.68000 31611092.0
0.69000 28355702.0
0.70000 24305660.0
0.71000 19978916.0
0.72000 16460253.0
0.73000 13797628.0
0.74000 11774607.0
0.75000 10155721.0
0.76000 8877448.0
0.77000 7808331.0
0.78000 6954558.0
0.79000 6244425.0
0.80000 5611477.0
0.81000 5074167.0
0.82000 4637501.0
0.83000 4218519.0
0.84000 3858698.0
0.85000 3544541.0
0.86000 3243717.0
0.87000 2996247.0
0.88000 2765328.0
0.89000 2575438.0
0.90000 2392955.0
0.91000 2231205.0
0.92000 2086656.0
0.93000 1935871.0
0.94000 1809127.0
0.95000 1683129.0
0.96000 1563509.0
0.97000 1469273.0
0.98000 1383761.0
0.99000 1319275.0
1.00000 1260282.0
1.01000 1191507.0
1.02000 1145236.0
1.03000 1081811.0
1.04000 1023962.0
1.05000 966440.0
1.06000 917393.0
1.07000 865424.0
1.08000 815509.0
1.09000 769398.0
1.10000 715502.0
1.11000 675588.0
1.12000 630348.0
1.13000 589669.0
1.14000 562646.0
1.15000 531141.0
1.16000 513287.0
1.17000 491630.0
1.18000 459560.0
1.19000 435539.0
1.20000 411800.0
1.21000 389923.0
1.22000 374229.0
1.23000 350995.0
1.24000 333652.0
1.25000 320747.0
1.26000 308284.0
1.27000 295347.0
1.28000 279449.0
1.29000 261700.0
1.30000 250629.0
1.31000 238189.0
1.32000 223568.0
1.33000 209655.0
1.34000 196276.0
1.35000 189824.0
1.36000 182202.0
1.37000 172336.0
1.38000 165872.0
1.39000 158414.0
1.40000 151670.0
1.41000 147777.0
1.42000 140157.0
1.43000 130633.0
1.44000 122727.0
1.45000 110477.0
1.46000 101226.0
1.47000 95939.0
1.48000 91762.0
1.49000 89246.0
1.50000 86978.0
1.51000 82067.0
1.52000 79491.0
1.53000 77138.0
1.54000 72772.0
1.55000 66352.0
1.56000 61513.0
1.57000 56826.0
1.58000 57140.0
1.59000 57821.0
1.60000 56670.0
1.61000 59100.0
1.62000 59543.0
1.63000 57454.0
1.64000 56850.0
1.65000 55832.0
1.66000 55062.0
1.67000 56084.0
1.68000 57777.0
1.69000 58335.0
1.70000 60541.0
1.71000 60578.0
1.72000 61711.0
1.73000 69754.0
1.74000 83597.0
1.75000 96523.0
1.76000 108932.0
1.77000 117587.0
1.78000 126342.0
1.79000 143920.0
1.80000 164923.0
1.81000 192355.0
1.82000 234643.0
1.83000 295033.0
1.84000 381379.0
1.85000 498821.0
1.86000 632645.0
1.87000 800860.0
1.88000 1079462.0
1.89000 1645353.0
1.90000 2854546.0
1.91000 5508949.0
1.92000 10455648.0
1.93000 17254340.0
1.94000 24081488.0
1.95000 27184160.0
1.96000 24745486.0
1.97000 17957464.0
1.98000 10347812.0
1.99000 5115759.0
2.00000 3045015.0
2.01000 2115754.0
2.02000 1353232.0
2.03000 956034.0
2.04000 765499.0
2.05000 609982.0
2.06000 531777.0
2.07000 466924.0
2.08000 379648.0
2.09000 333565.0
2.10000 303089.0
2.11000 258809.0
2.12000 236468.0
2.13000 218460.0
2.14000 189526.0
2.15000 176545.0
2.16000 167900.0
2.17000 148947.0
2.18000 136210.0
2.19000 126810.0
2.20000 111511.0
2.21000 101988.0
2.22000 98391.0
2.23000 87596.0
2.24000 79782.0
2.25000 76226.0
2.26000 68850.0
2.27000 62371.0
2.28000 61944.0
2.29000 58747.0
2.30000 56163.0
2.31000 55669.0
2.32000 51218.0
2.33000 46762.0
2.34000 45202.0
2.35000 41122.0
2.36000 36112.0
2.37000 34932.0
2.38000 33493.0
2.39000 31585.0
2.40000 31581.0
2.41000 29734.0
2.42000 27262.0
2.43000 26330.0
2.44000 25254.0
2.45000 21738.0
2.46000 20014.0
2.47000 19080.0
2.48000 17557.0
2.49000 17286.0
2.50000 17372.0
2.51000 16608.0
2.52000 16330.0
2.53000 15915.0
2.54000 14819.0
2.55000 14106.0
2.56000 13789.0
2.57000 12915.0
2.58000 11806.0
2.59000 12003.0
2.60000 10831.0
2.61000 9852.0
2.62000 9962.0
2.63000 9577.0
2.64000 8962.0
2.65000 9092.0
2.66000 8579.0
2.67000 8335.0
2.68000 8232.0
2.69000 7724.0
2.70000 6638.0
2.71000 6287.0
2.72000 6112.0
2.73000 6040.0
2.74000 5972.0
2.75000 5716.0
2.76000 5169.0
2.77000 4914.0
2.78000 5066.0
2.79000 4958.0
2.80000 5032.0
2.81000 4856.0
2.82000 4169.0
2.83000 3595.0
2.84000 3479.0
2.85000 3199.0
2.86000 3286.0
2.87000 3271.0
2.88000 3289.0
2.89000 3311.0
2.90000 3458.0
2.91000 3388.0
2.92000 3393.0
2.93000 3427.0
2.94000 3260.0
2.95000 2913.0
2.96000 2871.0
2.97000 2829.0
2.98000 2768.0
2.99000 2752.0
3.00000 2624.0
3.01000 2374.0
3.02000 2365.0
3.03000 2197.0
3.04000 1939.0
3.05000 1974.0
3.06000 1954.0
3.07000 2075.0
3.08000 1997.0
3.09000 2133.0
3.10000 1896.0
3.11000 1969.0
3.12000 2000.0
3.13000 2026.0
3.14000 1912.0
3.15000 2013.0
3.16000 1943.0
3.17000 1921.0
3.18000 1935.0
3.19000 1893.0
3.20000 1761.0
3.21000 1838.0
3.22000 1686.0
3.23000 1783.0
3.24000 1887.0
3.25000 1916.0
3.26000 2058.0
3.27000 2294.0
3.28000 2119.0
3.29000 1905.0
3.30000 1830.0
3.31000 1804.0
3.32000 1873.0
3.33000 2042.0
3.34000 2312.0
3.35000 2234.0
3.36000 2446.0
3.37000 2419.0
3.38000 2173.0
3.39000 2204.0
3.40000 2300.0
3.41000 2280.0
3.42000 2390.0
3.43000 2536.0
3.44000 2570.0
3.45000 2677.0
3.46000 2813.0
3.47000 2867.0
3.48000 2804.0
3.49000 2966.0
3.50000 3055.0
3.51000 3193.0
3.52000 3431.0
3.53000 3858.0
3.54000 4183.0
3.55000 4798.0
3.56000 5007.0
3.57000 5139.0
3.58000 5694.0
3.59000 6849.0
3.60000 8471.0
3.61000 10378.0
3.62000 12757.0
3.63000 14721.0
3.64000 18645.0
3.65000 27818.0
3.66000 49150.0
3.67000 95686.0
3.68000 180285.0
3.69000 302740.0
3.70000 415578.0
3.71000 456062.0
3.72000 393085.0
3.73000 268483.0
3.74000 155650.0
3.75000 93248.0
3.76000 63418.0
3.77000 42782.0
3.78000 26560.0
3.79000 17084.0
3.80000 12737.0
3.81000 9973.0
3.82000 8436.0
3.83000 7345.0
3.84000 6122.0
3.85000 5119.0
3.86000 4708.0
3.87000 4115.0
3.88000 3589.0
3.89000 3245.0
3.90000 3110.0
3.91000 2902.0
3.92000 2777.0
3.93000 2549.0
3.94000 2424.0
3.95000 2122.0
3.96000 2125.0
3.97000 2022.0
3.98000 1959.0
3.99000 1933.0
4.00000 1789.0
4.01000 1674.0
4.02000 1570.0
4.03000 1543.0
4.04000 1463.0
4.05000 1334.0
4.06000 1243.0
4.07000 1201.0
4.08000 1164.0
4.09000 1271.0
4.10000 1290.0
4.11000 1259.0
4.12000 1298.0
4.13000 1338.0
4.14000 1329.0
4.15000 1226.0
4.16000 1134.0
4.17000 1153.0
4.18000 1159.0
4.19000 1212.0
4.20000 1211.0
4.21000 1156.0
4.22000 1227.0
4.23000 1157.0
4.24000 1130.0
4.25000 1136.0
4.26000 1102.0
4.27000 1130.0
4.28000 1132.0
4.29000 1106.0
4.30000 1061.0
4.31000 1070.0
4.32000 1068.0
4.33000 1080.0
4.34000 1114.0
4.35000 1147.0
4.36000 1098.0
4.37000 944.0
4.38000 947.0
4.39000 976.0
4.40000 950.0
4.41000 954.0
4.42000 1001.0
4.43000 981.0
4.44000 1013.0
4.45000 1085.0
4.46000 1106.0
4.47000 1091.0
4.48000 1151.0
4.49000 1161.0
4.50000 1077.0
4.51000 1138.0
4.52000 1218.0
4.53000 1221.0
4.54000 1172.0
4.55000 1176.0
4.56000 1151.0
4.57000 1179.0
4.58000 1132.0
4.59000 1126.0
4.60000 1262.0
4.61000 1227.0
4.62000 1170.0
4.63000 1287.0
4.64000 1283.0
4.65000 1111.0
4.66000 1089.0
4.67000 1094.0
4.68000 1144.0
4.69000 1146.0
4.70000 1090.0
4.71000 1137.0
4.72000 1151.0
4.73000 1159.0
4.74000 1124.0
4.75000 1091.0
4.76000 1143.0
4.77000 1110.0
4.78000 1176.0
4.79000 1200.0
4.80000 1231.0
4.81000 1156.0
4.82000 1262.0
4.83000 1248.0
4.84000 1162.0
4.85000 1126.0
4.86000 1173.0
4.87000 1114.0
4.88000 1109.0
4.89000 1081.0
4.90000 1148.0
4.91000 1030.0
4.92000 1173.0
4.93000 1142.0
4.94000 1198.0
4.95000 1203.0
4.96000 1245.0
4.97000 1227.0
4.98000 1176.0
4.99000 1141.0
5.00000 1119.0
5.01000 1120.0
5.02000 1124.0
5.03000 1166.0
5.04000 1109.0
5.05000 1157.0
5.06000 1102.0
5.07000 1078.0
5.08000 1008.0
5.09000 1055.0
5.10000 1033.0
5.11000 973.0
5.12000 998.0
5.13000 1095.0
5.14000 1087.0
5.15000 1104.0
5.16000 1080.0
5.17000 1160.0
5.18000 1107.0
5.19000 1103.0
5.20000 1131.0
5.21000 1166.0
5.22000 1201.0
5.23000 1203.0
5.24000 1209.0
5.25000 1187.0
5.26000 1103.0
5.27000 1159.0
5.28000 1221.0
5.29000 1305.0
5.30000 1370.0
5.31000 1258.0
5.32000 1344.0
5.33000 1378.0
5.34000 1403.0
5.35000 1406.0
5.36000 1596.0
5.37000 1676.0
5.38000 1972.0
5.39000 2303.0
5.40000 2598.0
5.41000 2645.0
5.42000 2970.0
5.43000 2984.0
5.44000 4237.0
5.45000 6783.0
5.46000 11716.0
5.47000 19646.0
5.48000 31021.0
5.49000 45756.0
5.50000 58096.0
5.51000 62885.0
5.52000 57067.0
5.53000 43423.0
5.54000 29101.0
5.55000 19574.0
5.56000 14214.0
5.57000 10494.0
5.58000 7038.0
5.59000 4475.0
5.60000 2896.0
5.61000 2098.0
5.62000 1651.0
5.63000 1391.0
5.64000 1153.0
5.65000 927.0
5.66000 749.0
5.67000 733.0
5.68000 611.0
5.69000 621.0
5.70000 583.0
5.71000 553.0
5.72000 553.0
5.73000 575.0
5.74000 545.0
5.75000 586.0
5.76000 508.0
5.77000 512.0
5.78000 538.0
5.79000 497.0
5.80000 499.0
5.81000 525.0
5.82000 492.0
5.83000 450.0
5.84000 459.0
5.85000 433.0
5.86000 407.0
5.87000 418.0
5.88000 335.0
5.89000 404.0
5.90000 403.0
5.91000 429.0
5.92000 460.0
5.93000 481.0
5.94000 436.0
5.95000 419.0
5.96000 434.0
5.97000 415.0
5.98000 479.0
5.99000 428.0
6.00000 464.0
6.01000 458.0
6.02000 464.0
6.03000 417.0
6.04000 430.0
6.05000 409.0
6.06000 399.0
6.07000 404.0
6.08000 409.0
6.09000 383.0
6.10000 419.0
6.11000 342.0
6.12000 348.0
6.13000 407.0
6.14000 406.0
6.15000 396.0
6.16000 388.0
6.17000 367.0
6.18000 418.0
6.19000 406.0
6.20000 411.0
6.21000 454.0
6.22000 410.0
6.23000 391.0
6.24000 373.0
6.25000 332.0
6.26000 358.0
6.27000 370.0
6.28000 303.0
6.29000 338.0
6.30000 332.0
6.31000 326.0
6.32000 313.0
6.33000 294.0
6.34000 330.0
6.35000 302.0
6.36000 281.0
6.37000 268.0
6.38000 238.0
6.39000 273.0
6.40000 295.0
6.41000 292.0
6.42000 291.0
6.43000 291.0
6.44000 284.0
6.45000 280.0
6.46000 226.0
6.47000 234.0
6.48000 237.0
6.49000 212.0
6.50000 203.0
6.51000 230.0
6.52000 200.0
6.53000 218.0
6.54000 239.0
6.55000 253.0
6.56000 205.0
6.57000 221.0
6.58000 226.0
6.59000 243.0
6.60000 216.0
6.61000 205.0
6.62000 217.0
6.63000 250.0
6.64000 205.0
6.65000 197.0
6.66000 212.0
6.67000 189.0
6.68000 207.0
6.69000 196.0
6.70000 190.0
6.71000 202.0
6.72000 216.0
6.73000 183.0
6.74000 168.0
6.75000 136.0
6.76000 143.0
6.77000 176.0
6.78000 161.0
6.79000 166.0
6.80000 155.0
6.81000 143.0
6.82000 135.0
6.83000 146.0
6.84000 144.0
6.85000 115.0
6.86000 143.0
6.87000 108.0
6.88000 115.0
6.89000 126.0
6.90000 110.0
6.91000 121.0
6.92000 114.0
6.93000 120.0
6.94000 137.0
6.95000 88.0
6.96000 144.0
6.97000 127.0
6.98000 119.0
6.99000 127.0
7.00000 134.0
7.01000 116.0
7.02000 128.0
7.03000 127.0
7.04000 117.0
7.05000 113.0
7.06000 117.0
7.07000 110.0
7.08000 113.0
7.09000 107.0
7.10000 101.0
7.11000 99.0
7.12000 121.0
7.13000 107.0
7.14000 121.0
7.15000 114.0
7.16000 118.0
7.17000 154.0
7.18000 152.0
7.19000 205.0
7.20000 259.0
7.21000 279.0
7.22000 315.0
7.23000 353.0
7.24000 488.0
7.25000 864.0
7.26000 1786.0
7.27000 3123.0
7.28000 5736.0
7.29000 9583.0
7.30000 14317.0
7.31000 17701.0
7.32000 19417.0
7.33000 17722.0
7.34000 13829.0
7.35000 10171.0
7.36000 7591.0
7.37000 5967.0
7.38000 4849.0
7.39000 3680.0
7.40000 2536.0
7.41000 1919.0
7.42000 1333.0
7.43000 1123.0
7.44000 869.0
7.45000 746.0
7.46000 592.0
7.47000 492.0
7.48000 407.0
7.49000 373.0
7.50000 319.0
7.51000 276.0
7.52000 259.0
7.53000 271.0
7.54000 258.0
7.55000 245.0
7.56000 223.0
7.57000 197.0
7.58000 202.0
7.59000 168.0
7.60000 161.0
7.61000 153.0
7.62000 150.0
7.63000 138.0
7.64000 115.0
7.65000 132.0
7.66000 132.0
7.67000 112.0
7.68000 103.0
7.69000 128.0
7.70000 119.0
7.71000 102.0
7.72000 84.0
7.73000 95.0
7.74000 87.0
7.75000 102.0
7.76000 86.0
7.77000 85.0
7.78000 93.0
7.79000 76.0
7.80000 85.0
7.81000 116.0
7.82000 103.0
7.83000 71.0
7.84000 107.0
7.85000 66.0
7.86000 80.0
7.87000 70.0
7.88000 78.0
7.89000 80.0
7.90000 71.0
7.91000 90.0
7.92000 83.0
7.93000 71.0
7.94000 68.0
7.95000 92.0
7.96000 51.0
7.97000 88.0
7.98000 64.0
7.99000 72.0
8.00000 77.0
8.01000 77.0
8.02000 66.0
8.03000 60.0
8.04000 83.0
8.05000 87.0
8.06000 82.0
8.07000 72.0
8.08000 67.0
8.09000 66.0
8.10000 62.0
8.11000 57.0
8.12000 64.0
8.13000 76.0
8.14000 53.0
8.15000 82.0
8.16000 60.0
8.17000 61.0
8.18000 68.0
8.19000 84.0
8.20000 68.0
8.21000 69.0
8.22000 66.0
8.23000 46.0
8.24000 38.0
8.25000 64.0
8.26000 56.0
8.27000 36.0
8.28000 73.0
8.29000 56.0
8.30000 55.0
8.31000 49.0
8.32000 47.0
8.33000 49.0
8.34000 56.0
8.35000 43.0
8.36000 42.0
8.37000 54.0
8.38000 36.0
8.39000 34.0
8.40000 32.0
8.41000 38.0
8.42000 44.0
8.43000 45.0
8.44000 49.0
8.45000 43.0
8.46000 35.0
8.47000 50.0
8.48000 32.0
8.49000 46.0
8.50000 58.0
8.51000 41.0
8.52000 47.0
8.53000 54.0
8.54000 25.0
8.55000 33.0
8.56000 43.0
8.57000 51.0
8.58000 47.0
8.59000 62.0
8.60000 83.0
8.61000 71.0
8.62000 79.0
8.63000 49.0
8.64000 48.0
8.65000 36.0
8.66000 65.0
8.67000 44.0
8.68000 54.0
8.69000 57.0
8.70000 49.0
8.71000 58.0
8.72000 60.0
8.73000 63.0
8.74000 50.0
8.75000 79.0
8.76000 54.0
8.77000 43.0
8.78000 52.0
8.79000 60.0
8.80000 65.0
8.81000 58.0
8.82000 54.0
8.83000 58.0
8.84000 46.0
8.85000 55.0
8.86000 72.0
8.87000 46.0
8.88000 41.0
8.89000 52.0
8.90000 41.0
8.91000 59.0
8.92000 54.0
8.93000 63.0
8.94000 58.0
8.95000 54.0
8.96000 57.0
8.97000 66.0
8.98000 54.0
8.99000 62.0
9.00000 61.0
9.01000 67.0
9.02000 55.0
9.03000 66.0
9.04000 41.0
9.05000 49.0
9.06000 68.0
9.07000 72.0
9.08000 108.0
9.09000 178.0
9.10000 259.0
9.11000 342.0
9.12000 441.0
9.13000 419.0
9.14000 422.0
9.15000 374.0
9.16000 304.0
9.17000 263.0
9.18000 192.0
9.19000 164.0
9.20000 152.0
9.21000 142.0
9.22000 114.0
9.23000 104.0
9.24000 76.0
9.25000 73.0
9.26000 69.0
9.27000 55.0
9.28000 79.0
9.29000 62.0
9.30000 58.0
9.31000 54.0
9.32000 45.0
9.33000 50.0
9.34000 50.0
9.35000 33.0
9.36000 46.0
9.37000 38.0
9.38000 54.0
9.39000 62.0
9.40000 29.0
9.41000 51.0
9.42000 39.0
9.43000 37.0
9.44000 55.0
9.45000 40.0
9.46000 33.0
9.47000 51.0
9.48000 54.0
9.49000 52.0
9.50000 53.0
9.51000 36.0
9.52000 50.0
9.53000 51.0
9.54000 58.0
9.55000 66.0
9.56000 81.0
9.57000 51.0
9.58000 50.0
9.59000 43.0
9.60000 45.0
9.61000 48.0
9.62000 56.0
9.63000 43.0
9.64000 47.0
9.65000 35.0
9.66000 34.0
9.67000 26.0
9.68000 20.0
9.69000 43.0
9.70000 35.0
9.71000 46.0
9.72000 52.0
9.73000 50.0
9.74000 47.0
9.75000 55.0
9.76000 45.0
9.77000 60.0
9.78000 42.0
9.79000 56.0
9.80000 43.0
9.81000 26.0
9.82000 28.0
9.83000 32.0
9.84000 28.0
9.85000 22.0
9.86000 43.0
9.87000 29.0
9.88000 37.0
9.89000 39.0
9.90000 45.0
9.91000 51.0
9.92000 42.0
9.93000 48.0
9.94000 32.0
9.95000 35.0
9.96000 46.0
9.97000 44.0
9.98000 42.0
9.99000 45.0
10.00000 40.0
10.01000 28.0
10.02000 38.0
10.03000 47.0
10.04000 49.0
10.05000 40.0
10.06000 41.0
10.07000 45.0
10.08000 33.0
10.09000 51.0
10.10000 49.0
10.11000 37.0
10.12000 23.0
10.13000 30.0
10.14000 44.0
10.15000 40.0
10.16000 47.0
10.17000 44.0
10.18000 36.0
10.19000 29.0
10.20000 39.0
10.21000 38.0
10.22000 36.0
10.23000 64.0
10.24000 56.0
10.25000 36.0
10.26000 45.0
10.27000 49.0
10.28000 36.0
10.29000 39.0
10.30000 44.0
10.31000 61.0
10.32000 65.0
10.33000 47.0
10.34000 59.0
10.35000 70.0
10.36000 60.0
10.37000 73.0
10.38000 85.0
10.39000 66.0
10.40000 83.0
10.41000 61.0
10.42000 63.0
10.43000 37.0
10.44000 56.0
10.45000 46.0
10.46000 44.0
10.47000 46.0
10.48000 71.0
10.49000 54.0
10.50000 52.0
10.51000 37.0
10.52000 51.0
10.53000 40.0
10.54000 60.0
10.55000 62.0
10.56000 40.0
10.57000 48.0
10.58000 54.0
10.59000 52.0
10.60000 47.0
10.61000 44.0
10.62000 53.0
10.63000 54.0
10.64000 55.0
10.65000 62.0
10.66000 70.0
10.67000 49.0
10.68000 49.0
10.69000 49.0
10.70000 51.0
10.71000 50.0
10.72000 44.0
10.73000 61.0
10.74000 58.0
10.75000 63.0
10.76000 41.0
10.77000 49.0
10.78000 85.0
10.79000 59.0
10.80000 54.0
10.81000 81.0
10.82000 77.0
10.83000 78.0
10.84000 75.0
10.85000 71.0
10.86000 83.0
10.87000 83.0
10.88000 123.0
10.89000 132.0
10.90000 189.0
10.91000 266.0
10.92000 381.0
10.93000 496.0
10.94000 553.0
10.95000 587.0
10.96000 544.0
10.97000 446.0
10.98000 378.0
10.99000 283.0
11.00000 288.0
11.01000 198.0
11.02000 210.0
11.03000 191.0
11.04000 132.0
11.05000 116.0
11.06000 106.0
11.07000 97.0
11.08000 95.0
11.09000 47.0
11.10000 54.0
11.11000 52.0
11.12000 51.0
11.13000 46.0
11.14000 52.0
11.15000 71.0
11.16000 70.0
11.17000 71.0
11.18000 79.0
11.19000 62.0
11.20000 55.0
11.21000 75.0
11.22000 54.0
11.23000 55.0
11.24000 52.0
11.25000 39.0
11.26000 35.0
11.27000 43.0
11.28000 39.0
11.29000 34.0
11.30000 31.0
11.31000 48.0
11.32000 53.0
11.33000 44.0
11.34000 24.0
11.35000 26.0
11.36000 37.0
11.37000 43.0
11.38000 44.0
11.39000 36.0
11.40000 42.0
11.41000 39.0
11.42000 42.0
11.43000 32.0
11.44000 46.0
11.45000 57.0
11.46000 46.0
11.47000 42.0
11.48000 54.0
11.49000 39.0
11.50000 40.0
11.51000 41.0
11.52000 45.0
11.53000 48.0
11.54000 46.0
11.55000 40.0
11.56000 51.0
11.57000 47.0
11.58000 45.0
11.59000 37.0
11.60000 43.0
11.61000 45.0
11.62000 48.0
11.63000 25.0
11.64000 27.0
11.65000 41.0
11.66000 53.0
11.67000 32.0
11.68000 39.0
11.69000 44.0
11.70000 47.0
11.71000 47.0
11.72000 44.0
11.73000 47.0
11.74000 45.0
11.75000 49.0
11.76000 38.0
11.77000 36.0
11.78000 31.0
11.79000 39.0
11.80000 39.0
11.81000 29.0
11.82000 35.0
11.83000 51.0
11.84000 42.0
11.85000 42.0
11.86000 47.0
11.87000 35.0
11.88000 37.0
11.89000 24.0
11.90000 35.0
11.91000 40.0
11.92000 43.0
11.93000 25.0
11.94000 28.0
11.95000 39.0
11.96000 38.0
11.97000 29.0
11.98000 39.0
11.99000 33.0
12.00000 41.0
12.01000 34.0
12.02000 24.0
12.03000 16.0
12.04000 25.0
12.05000 38.0
12.06000 30.0
12.07000 39.0
12.08000 33.0
12.09000 29.0
12.10000 22.0
12.11000 36.0
12.12000 26.0
12.13000 29.0
12.14000 54.0
12.15000 57.0
12.16000 37.0
12.17000 49.0
12.18000 52.0
12.19000 36.0
12.20000 42.0
12.21000 31.0
12.22000 35.0
12.23000 36.0
12.24000 34.0
12.25000 19.0
12.26000 18.0
12.27000 23.0
12.28000 22.0
12.29000 29.0
12.30000 31.0
12.31000 30.0
12.32000 29.0
12.33000 28.0
12.34000 26.0
12.35000 27.0
12.36000 28.0
12.37000 34.0
12.38000 27.0
12.39000 41.0
12.40000 33.0
12.41000 35.0
12.42000 53.0
12.43000 39.0
12.44000 29.0
12.45000 49.0
12.46000 51.0
12.47000 41.0
12.48000 43.0
12.49000 48.0
12.50000 38.0
12.51000 33.0
12.52000 42.0
12.53000 48.0
12.54000 52.0
12.55000 32.0
12.56000 31.0
12.57000 41.0
12.58000 33.0
12.59000 38.0
12.60000 32.0
12.61000 32.0
12.62000 53.0
12.63000 61.0
12.64000 58.0
12.65000 68.0
12.66000 65.0
12.67000 79.0
12.68000 80.0
12.69000 83.0
12.70000 40.0
12.71000 29.0
12.72000 35.0
12.73000 44.0
12.74000 24.0
12.75000 56.0
12.76000 54.0
12.77000 67.0
12.78000 54.0
12.79000 36.0
12.80000 42.0
12.81000 58.0
12.82000 48.0
12.83000 62.0
12.84000 49.0
12.85000 56.0
12.86000 80.0
12.87000 49.0
12.88000 68.0
12.89000 68.0
12.90000 62.0
12.91000 44.0
12.92000 47.0
12.93000 66.0
12.94000 69.0
12.95000 43.0
12.96000 57.0
12.97000 62.0
12.98000 61.0
12.99000 60.0
13.00000 45.0
13.01000 37.0
13.02000 45.0
13.03000 42.0
13.04000 46.0
13.05000 53.0
13.06000 36.0
13.07000 47.0
13.08000 58.0
13.09000 57.0
13.10000 49.0
13.11000 58.0
13.12000 41.0
13.13000 62.0
13.14000 47.0
13.15000 42.0
13.16000 48.0
13.17000 44.0
13.18000 42.0
13.19000 48.0
13.20000 52.0
13.21000 51.0
13.22000 32.0
13.23000 33.0
13.24000 38.0
13.25000 51.0
13.26000 33.0
13.27000 41.0
13.28000 40.0
13.29000 34.0
13.30000 46.0
13.31000 43.0
13.32000 51.0
13.33000 43.0
13.34000 48.0
13.35000 64.0
13.36000 70.0
13.37000 66.0
13.38000 59.0
13.39000 46.0
13.40000 57.0
13.41000 50.0
13.42000 43.0
13.43000 43.0
13.44000 42.0
13.45000 51.0
13.46000 42.0
13.47000 47.0
13.48000 36.0
13.49000 43.0
13.50000 52.0
13.51000 40.0
13.52000 39.0
13.53000 47.0
13.54000 37.0
13.55000 64.0
13.56000 39.0
13.57000 56.0
13.58000 33.0
13.59000 33.0
13.60000 51.0
13.61000 41.0
13.62000 44.0
13.63000 49.0
13.64000 59.0
13.65000 51.0
13.66000 44.0
13.67000 51.0
13.68000 53.0
13.69000 64.0
13.70000 67.0
13.71000 33.0
13.72000 34.0
13.73000 45.0
13.74000 40.0
13.75000 43.0
13.76000 48.0
13.77000 41.0
13.78000 40.0
13.79000 44.0
13.80000 30.0
13.81000 39.0
13.82000 58.0
13.83000 48.0
13.84000 41.0
13.85000 34.0
13.86000 48.0
13.87000 43.0
13.88000 40.0
13.89000 57.0
13.90000 47.0
13.91000 74.0
13.92000 55.0
13.93000 42.0
13.94000 40.0
13.95000 38.0
13.96000 35.0
13.97000 33.0
13.98000 46.0
13.99000 55.0
