0.00500 21763712.0
0.01000 23158892.0
0.01500 22192628.0
0.02000 20027762.0
0.02500 17592172.0
0.03000 15032595.0
0.03500 12271431.0
0.04000 9293954.0
0.04500 6561132.0
0.05000 4708126.0
0.05500 3822946.0
0.06000 3575665.0
0.06500 3663409.0
0.07000 3884547.0
0.07500 4147165.0
0.08000 4412495.0
0.08500 4667819.0
0.09000 4924897.0
0.09500 5215345.0
0.10000 5493161.0
0.10500 5755616.0
0.11000 6046631.0
0.11500 6293832.0
0.12000 6574307.0
0.12500 6871395.0
0.13000 7164070.0
0.13500 7397599.0
0.14000 7585881.0
0.14500 7816289.0
0.15000 8120101.0
0.15500 8422141.0
0.16000 8629714.0
0.16500 8864952.0
0.17000 9173626.0
0.17500 9474144.0
0.18000 9740425.0
0.18500 9998793.0
0.19000 10150488.0
0.19500 10400630.0
0.20000 10729639.0
0.20500 11021465.0
0.21000 11238386.0
0.21500 11385565.0
0.22000 11595004.0
0.22500 11919420.0
0.23000 12203017.0
0.23500 12400913.0
0.24000 12581547.0
0.24500 12709220.0
0.25000 12904720.0
0.25500 13289978.0
0.26000 13435281.0
0.26500 13534663.0
0.27000 13737430.0
0.27500 14041219.0
0.28000 14346631.0
0.28500 14528105.0
0.29000 14638338.0
0.29500 14713897.0
0.30000 14928170.0
0.30500 15223699.0
0.31000 15439978.0
0.31500 15667377.0
0.32000 15746235.0
0.32500 16038118.0
0.33000 16292265.0
0.33500 16520318.0
0.34000 16540482.0
0.34500 16631461.0
0.35000 16869324.0
0.35500 16956764.0
0.36000 17171984.0
0.36500 17497060.0
0.37000 17636560.0
0.37500 17788556.0
0.38000 17883944.0
0.38500 18195528.0
0.39000 18360978.0
0.39500 18458506.0
0.40000 18607608.0
0.40500 18867084.0
0.41000 19050492.0
0.41500 19234294.0
0.42000 19307372.0
0.42500 19243784.0
0.43000 19434774.0
0.43500 19752836.0
0.44000 19930688.0
0.44500 20017846.0
0.45000 19967180.0
0.45500 20159054.0
0.46000 20467196.0
0.46500 20633512.0
0.47000 20580056.0
0.47500 20516034.0
0.48000 20695648.0
0.48500 20891528.0
0.49000 21042188.0
0.49500 21204132.0
0.50000 21150080.0
0.50500 21088296.0
0.51000 21309748.0
0.51500 21533192.0
0.52000 21583422.0
0.52500 21649788.0
0.53000 21772780.0
0.53500 21920908.0
0.54000 22114264.0
0.54500 22151578.0
0.55000 22066672.0
0.55500 21917248.0
0.56000 22017460.0
0.56500 22239702.0
0.57000 22427352.0
0.57500 22208540.0
0.58000 22175236.0
0.58500 22280792.0
0.59000 22368800.0
0.59500 22246788.0
0.60000 22183896.0
0.60500 22103140.0
0.61000 22133284.0
0.61500 22320124.0
0.62000 22244670.0
0.62500 22076936.0
0.63000 22130448.0
0.63500 22074200.0
0.64000 22149612.0
0.64500 21967470.0
0.65000 21665336.0
0.65500 21556970.0
0.66000 21385068.0
0.66500 21159748.0
0.67000 20900552.0
0.67500 20331356.0
0.68000 19814966.0
0.68500 19221076.0
0.69000 18480866.0
0.69500 17523628.0
0.70000 16360313.0
0.70500 15167489.0
0.71000 13944674.0
0.71500 12756783.0
0.72000 11698020.0
0.72500 10643365.0
0.73000 9700291.0
0.73500 8921838.0
0.74000 8233047.0
0.74500 7607611.0
0.75000 7070772.0
0.75500 6582178.0
0.76000 6139806.0
0.76500 5746095.0
0.77000 5396519.0
0.77500 5093625.0
0.78000 4774972.0
0.78500 4500462.0
0.79000 4270721.0
0.79500 4073796.0
0.80000 3882722.0
0.80500 3681115.0
0.81000 3504806.0
0.81500 3345392.0
0.82000 3194661.0
0.82500 3049284.0
0.83000 2908165.0
0.83500 2765723.0
0.84000 2621387.0
0.84500 2525998.0
0.85000 2424969.0
0.85500 2322322.0
0.86000 2229565.0
0.86500 2135279.0
0.87000 2071514.0
0.87500 1992842.0
0.88000 1917413.0
0.88500 1838416.0
0.89000 1765011.0
0.89500 1708451.0
0.90000 1653282.0
0.90500 1580573.0
0.91000 1521892.0
0.91500 1472489.0
0.92000 1427506.0
0.92500 1385934.0
0.93000 1337058.0
0.93500 1291109.0
0.94000 1246951.0
0.94500 1213203.0
0.95000 1188806.0
0.95500 1147126.0
0.96000 1110853.0
0.96500 1068636.0
0.97000 1044584.0
0.97500 1012469.0
0.98000 967950.0
0.98500 928628.0
0.99000 895338.0
0.99500 870033.0
1.00000 844180.0
1.00500 821866.0
1.01000 795337.0
1.01500 768539.0
1.02000 737949.0
1.02500 719707.0
1.03000 703632.0
1.03500 682165.0
1.04000 655783.0
1.04500 639507.0
1.05000 630308.0
1.05500 619428.0
1.06000 597937.0
1.06500 581476.0
1.07000 560373.0
1.07500 549786.0
1.08000 533080.0
1.08500 517349.0
1.09000 501983.0
1.09500 487307.0
1.10000 474799.0
1.10500 465770.0
1.11000 451232.0
1.11500 434457.0
1.12000 420443.0
1.12500 408086.0
1.13000 397836.0
1.13500 386031.0
1.14000 373444.0
1.14500 364272.0
1.15000 358063.0
1.15500 353237.0
1.16000 345719.0
1.16500 333496.0
1.17000 323553.0
1.17500 319003.0
1.18000 316408.0
1.18500 307531.0
1.19000 298695.0
1.19500 290328.0
1.20000 282515.0
1.20500 276316.0
1.21000 269525.0
1.21500 264267.0
1.22000 258467.0
1.22500 254934.0
1.23000 251978.0
1.23500 247540.0
1.24000 240870.0
1.24500 233885.0
1.25000 228890.0
1.25500 223270.0
1.26000 216942.0
1.26500 209208.0
1.27000 203798.0
1.27500 200238.0
1.28000 197706.0
1.28500 195680.0
1.29000 192813.0
1.29500 189035.0
1.30000 184628.0
1.30500 178808.0
1.31000 174740.0
1.31500 168962.0
1.32000 163565.0
1.32500 159556.0
1.33000 156760.0
1.33500 155752.0
1.34000 152395.0
1.34500 149665.0
1.35000 147254.0
1.35500 144963.0
1.36000 145125.0
1.36500 143756.0
1.37000 141310.0
1.37500 138648.0
1.38000 135501.0
1.38500 133411.0
1.39000 132056.0
1.39500 129410.0
1.40000 127102.0
1.40500 126592.0
1.41000 125292.0
1.41500 124910.0
1.42000 121978.0
1.42500 118217.0
1.43000 115358.0
1.43500 113573.0
1.44000 111928.0
1.44500 108971.0
1.45000 106946.0
1.45500 106611.0
1.46000 106070.0
1.46500 105846.0
1.47000 105272.0
1.47500 102231.0
1.48000 99683.0
1.48500 97083.0
1.49000 93927.0
1.49500 90159.0
1.50000 87252.0
1.50500 84474.0
1.51000 84324.0
1.51500 85489.0
1.52000 87113.0
1.52500 87167.0
1.53000 87685.0
1.53500 88160.0
1.54000 87425.0
1.54500 83994.0
1.55000 79204.0
1.55500 74728.0
1.56000 71253.0
1.56500 68552.0
1.57000 65710.0
1.57500 63946.0
1.58000 63657.0
1.58500 64953.0
1.59000 66615.0
1.59500 67802.0
1.60000 67085.0
1.60500 66045.0
1.61000 64922.0
1.61500 63628.0
1.62000 62945.0
1.62500 62827.0
1.63000 62438.0
1.63500 62848.0
1.64000 64100.0
1.64500 65176.0
1.65000 65095.0
1.65500 64674.0
1.66000 64415.0
1.66500 65366.0
1.67000 66429.0
1.67500 66648.0
1.68000 66499.0
1.68500 66711.0
1.69000 64960.0
1.69500 62521.0
1.70000 60761.0
1.70500 58060.0
1.71000 56133.0
1.71500 54630.0
1.72000 54682.0
1.72500 53730.0
1.73000 53233.0
1.73500 54499.0
1.74000 55798.0
1.74500 58827.0
1.75000 61747.0
1.75500 63789.0
1.76000 65379.0
1.76500 67339.0
1.77000 68315.0
1.77500 68907.0
1.78000 67857.0
1.78500 67681.0
1.79000 67464.0
1.79500 66760.0
1.80000 67283.0
1.80500 67836.0
1.81000 66961.0
1.81500 67783.0
1.82000 68625.0
1.82500 69242.0
1.83000 69183.0
1.83500 70326.0
1.84000 72311.0
1.84500 74534.0
1.85000 77876.0
1.85500 81618.0
1.86000 85307.0
1.86500 88491.0
1.87000 90655.0
1.87500 91633.0
1.88000 90177.0
1.88500 87774.0
1.89000 89469.0
1.89500 91371.0
1.90000 94281.0
1.90500 98736.0
1.91000 101454.0
1.91500 105057.0
1.92000 111302.0
1.92500 122160.0
1.93000 137069.0
1.93500 155545.0
1.94000 178221.0
1.94500 205851.0
1.95000 235551.0
1.95500 257910.0
1.96000 276782.0
1.96500 292112.0
1.97000 311118.0
1.97500 341225.0
1.98000 383452.0
1.98500 429093.0
1.99000 482591.0
1.99500 548562.0
2.00000 627117.0
2.00500 710803.0
2.01000 815356.0
2.01500 994983.0
2.02000 1319953.0
2.02500 1923418.0
2.03000 2894418.0
2.03500 4162620.0
2.04000 5578248.0
2.04500 7041382.0
2.05000 8244910.0
2.05500 8807345.0
2.06000 8448391.0
2.06500 7386346.0
2.07000 5986886.0
2.07500 4481584.0
2.08000 3162999.0
2.08500 2145609.0
2.09000 1441870.0
2.09500 979657.0
2.10000 670052.0
2.10500 466777.0
2.11000 326122.0
2.11500 227737.0
2.12000 165326.0
2.12500 124798.0
2.13000 100327.0
2.13500 83857.0
2.14000 70956.0
2.14500 59126.0
2.15000 49298.0
2.15500 42352.0
2.16000 38023.0
2.16500 35828.0
2.17000 36452.0
2.17500 37937.0
2.18000 39089.0
2.18500 38275.0
2.19000 36279.0
2.19500 33194.0
2.20000 29866.0
2.20500 26421.0
2.21000 23613.0
2.21500 21234.0
2.22000 19619.0
2.22500 17698.0
2.23000 15795.0
2.23500 13723.0
2.24000 11919.0
2.24500 10125.0
2.25000 8742.0
2.25500 8092.0
2.26000 7776.0
2.26500 7666.0
2.27000 7446.0
2.27500 6727.0
2.28000 6221.0
2.28500 5632.0
2.29000 5318.0
2.29500 4776.0
2.30000 4562.0
2.30500 4178.0
2.31000 4016.0
2.31500 3687.0
2.32000 3557.0
2.32500 3216.0
2.33000 2921.0
2.33500 2554.0
2.34000 2321.0
2.34500 2143.0
2.35000 2054.0
2.35500 2031.0
2.36000 2005.0
2.36500 2108.0
2.37000 2168.0
2.37500 2258.0
2.38000 2343.0
2.38500 2337.0
2.39000 2315.0
2.39500 2027.0
2.40000 1876.0
2.40500 1770.0
2.41000 1588.0
2.41500 1416.0
2.42000 1342.0
2.42500 1110.0
2.43000 944.0
2.43500 912.0
2.44000 767.0
2.44500 788.0
2.45000 805.0
2.45500 840.0
2.46000 856.0
2.46500 917.0
2.47000 828.0
2.47500 771.0
2.48000 744.0
2.48500 742.0
2.49000 698.0
2.49500 783.0
2.50000 806.0
2.50500 740.0
2.51000 717.0
2.51500 666.0
2.52000 630.0
2.52500 641.0
2.53000 593.0
2.53500 614.0
2.54000 620.0
2.54500 676.0
2.55000 688.0
2.55500 659.0
2.56000 602.0
2.56500 522.0
2.57000 483.0
2.57500 406.0
2.58000 405.0
2.58500 371.0
2.59000 384.0
2.59500 428.0
2.60000 405.0
2.60500 448.0
2.61000 429.0
2.61500 468.0
2.62000 476.0
2.62500 477.0
2.63000 469.0
2.63500 396.0
2.64000 390.0
2.64500 345.0
2.65000 349.0
2.65500 336.0
2.66000 359.0
2.66500 377.0
2.67000 426.0
2.67500 466.0
2.68000 532.0
2.68500 549.0
2.69000 603.0
2.69500 578.0
2.70000 621.0
2.70500 521.0
2.71000 523.0
2.71500 525.0
2.72000 523.0
2.72500 569.0
2.73000 529.0
2.73500 617.0
2.74000 578.0
2.74500 612.0
2.75000 581.0
2.75500 571.0
2.76000 544.0
2.76500 560.0
2.77000 626.0
2.77500 602.0
2.78000 633.0
2.78500 655.0
2.79000 612.0
2.79500 677.0
2.80000 648.0
2.80500 645.0
2.81000 659.0
2.81500 603.0
2.82000 614.0
2.82500 635.0
2.83000 588.0
2.83500 637.0
2.84000 556.0
2.84500 591.0
2.85000 570.0
2.85500 568.0
2.86000 595.0
2.86500 561.0
2.87000 622.0
2.87500 584.0
2.88000 601.0
2.88500 580.0
2.89000 632.0
2.89500 653.0
2.90000 635.0
2.90500 606.0
2.91000 562.0
2.91500 498.0
2.92000 483.0
2.92500 525.0
2.93000 545.0
2.93500 617.0
2.94000 588.0
2.94500 667.0
2.95000 689.0
2.95500 684.0
2.96000 672.0
2.96500 659.0
2.97000 639.0
2.97500 610.0
2.98000 616.0
2.98500 522.0
2.99000 548.0
2.99500 540.0
3.00000 536.0
3.00500 486.0
3.01000 567.0
3.01500 594.0
3.02000 576.0
3.02500 586.0
3.03000 577.0
3.03500 672.0
3.04000 641.0
3.04500 669.0
3.05000 645.0
3.05500 617.0
3.06000 649.0
3.06500 602.0
3.07000 617.0
3.07500 571.0
3.08000 581.0
3.08500 592.0
3.09000 665.0
3.09500 645.0
3.10000 651.0
3.10500 720.0
3.11000 719.0
3.11500 717.0
3.12000 721.0
3.12500 663.0
3.13000 643.0
3.13500 660.0
3.14000 622.0
3.14500 608.0
3.15000 642.0
3.15500 653.0
3.16000 613.0
3.16500 622.0
3.17000 620.0
3.17500 605.0
3.18000 632.0
3.18500 629.0
3.19000 605.0
3.19500 638.0
3.20000 652.0
3.20500 646.0
3.21000 690.0
3.21500 662.0
3.22000 682.0
3.22500 608.0
3.23000 599.0
3.23500 638.0
3.24000 625.0
3.24500 631.0
3.25000 638.0
3.25500 660.0
3.26000 658.0
3.26500 694.0
3.27000 642.0
3.27500 670.0
3.28000 638.0
3.28500 713.0
3.29000 712.0
3.29500 730.0
3.30000 693.0
3.30500 759.0
3.31000 783.0
3.31500 683.0
3.32000 748.0
3.32500 740.0
3.33000 664.0
3.33500 642.0
3.34000 650.0
3.34500 604.0
3.35000 606.0
3.35500 565.0
3.36000 671.0
3.36500 731.0
3.37000 760.0
3.37500 792.0
3.38000 755.0
3.38500 761.0
3.39000 762.0
3.39500 705.0
3.40000 678.0
3.40500 620.0
3.41000 585.0
3.41500 624.0
3.42000 559.0
3.42500 539.0
3.43000 562.0
3.43500 534.0
3.44000 622.0
3.44500 596.0
3.45000 604.0
3.45500 599.0
3.46000 546.0
3.46500 532.0
3.47000 533.0
3.47500 534.0
3.48000 480.0
3.48500 512.0
3.49000 510.0
3.49500 533.0
3.50000 550.0
3.50500 573.0
3.51000 546.0
3.51500 602.0
3.52000 558.0
3.52500 589.0
3.53000 598.0
3.53500 634.0
3.54000 636.0
3.54500 691.0
3.55000 698.0
3.55500 626.0
3.56000 661.0
3.56500 599.0
3.57000 625.0
3.57500 536.0
3.58000 540.0
3.58500 481.0
3.59000 465.0
3.59500 467.0
3.60000 488.0
3.60500 463.0
3.61000 477.0
3.61500 529.0
3.62000 532.0
3.62500 560.0
3.63000 607.0
3.63500 661.0
3.64000 638.0
3.64500 644.0
3.65000 639.0
3.65500 618.0
3.66000 571.0
3.66500 605.0
3.67000 544.0
3.67500 605.0
3.68000 602.0
3.68500 562.0
3.69000 586.0
3.69500 605.0
3.70000 564.0
3.70500 575.0
3.71000 593.0
3.71500 553.0
3.72000 606.0
3.72500 633.0
3.73000 665.0
3.73500 720.0
3.74000 757.0
3.74500 726.0
3.75000 741.0
3.75500 716.0
3.76000 766.0
3.76500 686.0
3.77000 719.0
3.77500 708.0
3.78000 795.0
3.78500 739.0
3.79000 841.0
3.79500 955.0
3.80000 1105.0
3.80500 1393.0
3.81000 1748.0
3.81500 2169.0
3.82000 2607.0
3.82500 2989.0
3.83000 3524.0
3.83500 3926.0
3.84000 4264.0
3.84500 4860.0
3.85000 5741.0
3.85500 6944.0
3.86000 8648.0
3.86500 10507.0
3.87000 12705.0
3.87500 15442.0
3.88000 18221.0
3.88500 22051.0
3.89000 27535.0
3.89500 37093.0
3.90000 51919.0
3.90500 73031.0
3.91000 98763.0
3.91500 124419.0
3.92000 145768.0
3.92500 158483.0
3.93000 155214.0
3.93500 140016.0
3.94000 116599.0
3.94500 89146.0
3.95000 65394.0
3.95500 45900.0
3.96000 31797.0
3.96500 21667.0
3.97000 15094.0
3.97500 10452.0
3.98000 7237.0
3.98500 4717.0
3.99000 3153.0
3.99500 2054.0
4.00000 1463.0
4.00500 1129.0
4.01000 922.0
4.01500 812.0
4.02000 684.0
4.02500 670.0
4.03000 641.0
4.03500 720.0
4.04000 685.0
4.04500 777.0
4.05000 866.0
4.05500 872.0
4.06000 893.0
4.06500 877.0
4.07000 843.0
4.07500 760.0
4.08000 694.0
4.08500 616.0
4.09000 544.0
4.09500 465.0
4.10000 479.0
4.10500 433.0
4.11000 352.0
4.11500 312.0
4.12000 282.0
4.12500 249.0
4.13000 230.0
4.13500 260.0
4.14000 216.0
4.14500 203.0
4.15000 238.0
4.15500 224.0
4.16000 230.0
4.16500 210.0
4.17000 213.0
4.17500 202.0
4.18000 203.0
4.18500 190.0
4.19000 186.0
4.19500 170.0
4.20000 165.0
4.20500 144.0
4.21000 138.0
4.21500 134.0
4.22000 157.0
4.22500 141.0
4.23000 129.0
4.23500 158.0
4.24000 151.0
4.24500 158.0
4.25000 152.0
4.25500 173.0
4.26000 153.0
4.26500 186.0
4.27000 183.0
4.27500 159.0
4.28000 157.0
4.28500 158.0
4.29000 132.0
4.29500 127.0
4.30000 101.0
4.30500 99.0
4.31000 103.0
4.31500 117.0
4.32000 110.0
4.32500 112.0
4.33000 86.0
4.33500 134.0
4.34000 117.0
4.34500 133.0
4.35000 135.0
4.35500 125.0
4.36000 122.0
4.36500 139.0
4.37000 133.0
4.37500 127.0
4.38000 148.0
4.38500 143.0
4.39000 116.0
4.39500 109.0
4.40000 128.0
4.40500 99.0
4.41000 112.0
4.41500 108.0
4.42000 100.0
4.42500 83.0
4.43000 80.0
4.43500 87.0
4.44000 93.0
4.44500 91.0
4.45000 73.0
4.45500 86.0
4.46000 77.0
4.46500 69.0
4.47000 72.0
4.47500 81.0
4.48000 53.0
4.48500 75.0
4.49000 83.0
4.49500 79.0
4.50000 103.0
4.50500 82.0
4.51000 88.0
4.51500 97.0
4.52000 100.0
4.52500 95.0
4.53000 100.0
4.53500 77.0
4.54000 82.0
4.54500 79.0
4.55000 83.0
4.55500 81.0
4.56000 79.0
4.56500 72.0
4.57000 86.0
4.57500 75.0
4.58000 72.0
4.58500 75.0
4.59000 83.0
4.59500 69.0
4.60000 89.0
4.60500 67.0
4.61000 72.0
4.61500 82.0
4.62000 95.0
4.62500 87.0
4.63000 84.0
4.63500 94.0
4.64000 87.0
4.64500 88.0
4.65000 96.0
4.65500 74.0
4.66000 93.0
4.66500 105.0
4.67000 84.0
4.67500 80.0
4.68000 79.0
4.68500 106.0
4.69000 83.0
4.69500 88.0
4.70000 89.0
4.70500 78.0
4.71000 88.0
4.71500 70.0
4.72000 93.0
4.72500 81.0
4.73000 77.0
4.73500 63.0
4.74000 68.0
4.74500 94.0
4.75000 87.0
4.75500 74.0
4.76000 72.0
4.76500 63.0
4.77000 73.0
4.77500 60.0
4.78000 79.0
4.78500 67.0
4.79000 68.0
4.79500 75.0
4.80000 78.0
4.80500 67.0
4.81000 62.0
4.81500 60.0
4.82000 77.0
4.82500 66.0
4.83000 84.0
4.83500 73.0
4.84000 60.0
4.84500 70.0
4.85000 76.0
4.85500 74.0
4.86000 71.0
4.86500 66.0
4.87000 56.0
4.87500 69.0
4.88000 75.0
4.88500 75.0
4.89000 60.0
4.89500 75.0
4.90000 77.0
4.90500 78.0
4.91000 59.0
4.91500 79.0
4.92000 72.0
4.92500 58.0
4.93000 67.0
4.93500 75.0
4.94000 75.0
4.94500 75.0
4.95000 73.0
4.95500 63.0
4.96000 84.0
4.96500 57.0
4.97000 64.0
4.97500 79.0
4.98000 58.0
4.98500 70.0
4.99000 65.0
4.99500 70.0
5.00000 85.0
5.00500 52.0
5.01000 88.0
5.01500 72.0
5.02000 71.0
5.02500 71.0
5.03000 63.0
5.03500 74.0
5.04000 73.0
5.04500 62.0
5.05000 66.0
5.05500 55.0
5.06000 58.0
5.06500 77.0
5.07000 57.0
5.07500 65.0
5.08000 54.0
5.08500 76.0
5.09000 67.0
5.09500 72.0
5.10000 64.0
5.10500 56.0
5.11000 56.0
5.11500 85.0
5.12000 64.0
5.12500 54.0
5.13000 66.0
5.13500 49.0
5.14000 54.0
5.14500 51.0
5.15000 67.0
5.15500 60.0
5.16000 60.0
5.16500 63.0
5.17000 60.0
5.17500 60.0
5.18000 57.0
5.18500 60.0
5.19000 42.0
5.19500 52.0
5.20000 60.0
5.20500 49.0
5.21000 43.0
5.21500 81.0
5.22000 69.0
5.22500 85.0
5.23000 68.0
5.23500 80.0
5.24000 81.0
5.24500 88.0
5.25000 82.0
5.25500 80.0
5.26000 79.0
5.26500 83.0
5.27000 79.0
5.27500 91.0
5.28000 84.0
5.28500 70.0
5.29000 85.0
5.29500 83.0
5.30000 64.0
5.30500 74.0
5.31000 89.0
5.31500 68.0
5.32000 78.0
5.32500 104.0
5.33000 93.0
5.33500 97.0
5.34000 72.0
5.34500 98.0
5.35000 113.0
5.35500 94.0
5.36000 111.0
5.36500 88.0
5.37000 106.0
5.37500 77.0
5.38000 96.0
5.38500 100.0
5.39000 114.0
5.39500 108.0
5.40000 102.0
5.40500 102.0
5.41000 110.0
5.41500 101.0
5.42000 92.0
5.42500 108.0
5.43000 110.0
5.43500 116.0
5.44000 131.0
5.44500 123.0
5.45000 146.0
5.45500 160.0
5.46000 161.0
5.46500 174.0
5.47000 135.0
5.47500 188.0
5.48000 164.0
5.48500 196.0
5.49000 167.0
5.49500 177.0
5.50000 196.0
5.50500 198.0
5.51000 189.0
5.51500 178.0
5.52000 190.0
5.52500 204.0
5.53000 225.0
5.53500 248.0
5.54000 251.0
5.54500 236.0
5.55000 242.0
5.55500 261.0
5.56000 270.0
5.56500 267.0
5.57000 317.0
5.57500 264.0
5.58000 269.0
5.58500 298.0
5.59000 312.0
5.59500 318.0
5.60000 304.0
5.60500 348.0
5.61000 308.0
5.61500 318.0
5.62000 335.0
5.62500 330.0
5.63000 346.0
5.63500 297.0
5.64000 317.0
5.64500 346.0
5.65000 298.0
5.65500 310.0
5.66000 328.0
5.66500 323.0
5.67000 345.0
5.67500 338.0
5.68000 376.0
5.68500 407.0
5.69000 444.0
5.69500 477.0
5.70000 543.0
5.70500 567.0
5.71000 567.0
5.71500 645.0
5.72000 683.0
5.72500 718.0
5.73000 791.0
5.73500 874.0
5.74000 891.0
5.74500 955.0
5.75000 1111.0
5.75500 1220.0
5.76000 1352.0
5.76500 1464.0
5.77000 1532.0
5.77500 1913.0
5.78000 2103.0
5.78500 2209.0
5.79000 2354.0
5.79500 2566.0
5.80000 2976.0
5.80500 3440.0
5.81000 3991.0
5.81500 4813.0
5.82000 5731.0
5.82500 6352.0
5.83000 7299.0
5.83500 8095.0
5.84000 8132.0
5.84500 7546.0
5.85000 6756.0
5.85500 5945.0
5.86000 4858.0
5.86500 3909.0
5.87000 2940.0
5.87500 2376.0
5.88000 1775.0
5.88500 1348.0
5.89000 1075.0
5.89500 782.0
5.90000 601.0
5.90500 406.0
5.91000 309.0
5.91500 192.0
5.92000 167.0
5.92500 119.0
5.93000 126.0
5.93500 93.0
5.94000 98.0
5.94500 90.0
5.95000 67.0
5.95500 55.0
5.96000 63.0
5.96500 71.0
5.97000 66.0
5.97500 85.0
5.98000 64.0
5.98500 79.0
5.99000 59.0
5.99500 59.0
6.00000 67.0
6.00500 68.0
6.01000 64.0
6.01500 60.0
6.02000 58.0
6.02500 44.0
6.03000 42.0
6.03500 55.0
6.04000 38.0
6.04500 36.0
6.05000 26.0
6.05500 31.0
6.06000 28.0
6.06500 30.0
6.07000 22.0
6.07500 35.0
6.08000 30.0
6.08500 23.0
6.09000 29.0
6.09500 24.0
6.10000 24.0
6.10500 31.0
6.11000 26.0
6.11500 21.0
6.12000 34.0
6.12500 24.0
6.13000 10.0
6.13500 25.0
6.14000 14.0
6.14500 25.0
6.15000 19.0
6.15500 24.0
6.16000 19.0
6.16500 20.0
6.17000 13.0
6.17500 12.0
6.18000 10.0
6.18500 17.0
6.19000 23.0
6.19500 17.0
6.20000 23.0
6.20500 24.0
6.21000 19.0
6.21500 23.0
6.22000 29.0
6.22500 17.0
6.23000 20.0
6.23500 19.0
6.24000 26.0
6.24500 21.0
6.25000 12.0
6.25500 14.0
6.26000 9.0
6.26500 17.0
6.27000 12.0
6.27500 15.0
6.28000 17.0
6.28500 14.0
6.29000 24.0
6.29500 19.0
6.30000 8.0
6.30500 10.0
6.31000 8.0
6.31500 20.0
6.32000 20.0
6.32500 15.0
6.33000 14.0
6.33500 14.0
6.34000 21.0
6.34500 29.0
6.35000 17.0
6.35500 19.0
6.36000 10.0
6.36500 21.0
6.37000 7.0
6.37500 15.0
6.38000 11.0
6.38500 26.0
6.39000 22.0
6.39500 26.0
6.40000 15.0
6.40500 20.0
6.41000 18.0
6.41500 16.0
6.42000 16.0
6.42500 8.0
6.43000 12.0
6.43500 20.0
6.44000 20.0
6.44500 18.0
6.45000 22.0
6.45500 14.0
6.46000 16.0
6.46500 16.0
6.47000 19.0
6.47500 19.0
6.48000 6.0
6.48500 10.0
6.49000 13.0
6.49500 11.0
6.50000 10.0
6.50500 16.0
6.51000 19.0
6.51500 12.0
6.52000 12.0
6.52500 15.0
6.53000 16.0
6.53500 22.0
6.54000 10.0
6.54500 14.0
6.55000 14.0
6.55500 21.0
6.56000 15.0
6.56500 24.0
6.57000 16.0
6.57500 19.0
6.58000 15.0
6.58500 12.0
6.59000 18.0
6.59500 7.0
6.60000 19.0
6.60500 14.0
6.61000 11.0
6.61500 12.0
6.62000 17.0
6.62500 13.0
6.63000 10.0
6.63500 12.0
6.64000 18.0
6.64500 12.0
6.65000 7.0
6.65500 18.0
6.66000 7.0
6.66500 15.0
6.67000 15.0
6.67500 11.0
6.68000 14.0
6.68500 10.0
6.69000 11.0
6.69500 10.0
6.70000 8.0
6.70500 17.0
6.71000 16.0
6.71500 9.0
6.72000 14.0
6.72500 17.0
6.73000 10.0
6.73500 19.0
6.74000 19.0
6.74500 16.0
6.75000 12.0
6.75500 13.0
6.76000 18.0
6.76500 20.0
6.77000 12.0
6.77500 11.0
6.78000 13.0
6.78500 17.0
6.79000 15.0
6.79500 18.0
6.80000 15.0
6.80500 17.0
6.81000 13.0
6.81500 12.0
6.82000 11.0
6.82500 13.0
6.83000 10.0
6.83500 14.0
6.84000 16.0
6.84500 18.0
6.85000 11.0
6.85500 18.0
6.86000 17.0
6.86500 15.0
6.87000 14.0
6.87500 8.0
6.88000 12.0
6.88500 7.0
6.89000 20.0
6.89500 8.0
6.90000 11.0
6.90500 17.0
6.91000 13.0
6.91500 12.0
6.92000 12.0
6.92500 12.0
6.93000 8.0
6.93500 12.0
6.94000 12.0
6.94500 10.0
6.95000 10.0
6.95500 12.0
6.96000 9.0
6.96500 13.0
6.97000 10.0
6.97500 12.0
6.98000 6.0
6.98500 8.0
6.99000 18.0
6.99500 21.0
7.00000 18.0
7.00500 21.0
7.01000 10.0
7.01500 11.0
7.02000 19.0
7.02500 12.0
7.03000 20.0
7.03500 13.0
7.04000 15.0
7.04500 10.0
7.05000 13.0
7.05500 19.0
7.06000 9.0
7.06500 10.0
7.07000 17.0
7.07500 9.0
7.08000 13.0
7.08500 16.0
7.09000 11.0
7.09500 10.0
7.10000 13.0
7.10500 7.0
7.11000 18.0
7.11500 10.0
7.12000 16.0
7.12500 17.0
7.13000 12.0
7.13500 8.0
7.14000 11.0
7.14500 10.0
7.15000 19.0
7.15500 21.0
7.16000 19.0
7.16500 20.0
7.17000 20.0
7.17500 17.0
7.18000 20.0
7.18500 12.0
7.19000 20.0
7.19500 17.0
7.20000 19.0
7.20500 14.0
7.21000 20.0
7.21500 12.0
7.22000 16.0
7.22500 21.0
7.23000 19.0
7.23500 21.0
7.24000 17.0
7.24500 16.0
7.25000 17.0
7.25500 13.0
7.26000 22.0
7.26500 17.0
7.27000 13.0
7.27500 21.0
7.28000 21.0
7.28500 23.0
7.29000 16.0
7.29500 13.0
7.30000 4.0
7.30500 20.0
7.31000 12.0
7.31500 12.0
7.32000 12.0
7.32500 7.0
7.33000 8.0
7.33500 14.0
7.34000 11.0
7.34500 16.0
7.35000 21.0
7.35500 19.0
7.36000 17.0
7.36500 27.0
7.37000 19.0
7.37500 17.0
7.38000 16.0
7.38500 27.0
7.39000 14.0
7.39500 20.0
7.40000 10.0
7.40500 28.0
7.41000 14.0
7.41500 16.0
7.42000 18.0
7.42500 24.0
7.43000 22.0
7.43500 19.0
7.44000 26.0
7.44500 17.0
7.45000 21.0
7.45500 23.0
7.46000 18.0
7.46500 21.0
7.47000 21.0
7.47500 20.0
7.48000 16.0
7.48500 29.0
7.49000 17.0
7.49500 18.0
7.50000 30.0
7.50500 16.0
7.51000 12.0
7.51500 24.0
7.52000 25.0
7.52500 26.0
7.53000 23.0
7.53500 22.0
7.54000 20.0
7.54500 21.0
7.55000 22.0
7.55500 24.0
7.56000 23.0
7.56500 21.0
7.57000 37.0
7.57500 26.0
7.58000 32.0
7.58500 17.0
7.59000 33.0
7.59500 39.0
7.60000 27.0
7.60500 32.0
7.61000 43.0
7.61500 34.0
7.62000 37.0
7.62500 45.0
7.63000 48.0
7.63500 55.0
7.64000 65.0
7.64500 72.0
7.65000 71.0
7.65500 82.0
7.66000 104.0
7.66500 97.0
7.67000 99.0
7.67500 98.0
7.68000 95.0
7.68500 112.0
7.69000 143.0
7.69500 137.0
7.70000 134.0
7.70500 142.0
7.71000 166.0
7.71500 207.0
7.72000 197.0
7.72500 239.0
7.73000 235.0
7.73500 271.0
7.74000 316.0
7.74500 401.0
7.75000 413.0
7.75500 440.0
7.76000 480.0
7.76500 497.0
7.77000 417.0
7.77500 388.0
7.78000 350.0
7.78500 351.0
7.79000 254.0
7.79500 212.0
7.80000 210.0
7.80500 146.0
7.81000 133.0
7.81500 102.0
7.82000 73.0
7.82500 70.0
7.83000 53.0
7.83500 42.0
7.84000 40.0
7.84500 32.0
7.85000 27.0
7.85500 23.0
7.86000 28.0
7.86500 13.0
7.87000 17.0
7.87500 26.0
7.88000 13.0
7.88500 22.0
7.89000 14.0
7.89500 10.0
7.90000 21.0
7.90500 17.0
7.91000 10.0
7.91500 23.0
7.92000 9.0
7.92500 12.0
7.93000 15.0
7.93500 12.0
7.94000 15.0
7.94500 14.0
7.95000 11.0
7.95500 14.0
7.96000 14.0
7.96500 11.0
7.97000 19.0
7.97500 8.0
7.98000 14.0
7.98500 13.0
7.99000 13.0
7.99500 11.0
8.00000 13.0
8.00500 8.0
8.01000 12.0
8.01500 9.0
8.02000 13.0
8.02500 16.0
8.03000 11.0
8.03500 10.0
8.04000 9.0
8.04500 12.0
8.05000 7.0
8.05500 16.0
8.06000 11.0
8.06500 11.0
8.07000 9.0
8.07500 7.0
8.08000 11.0
8.08500 7.0
8.09000 4.0
8.09500 13.0
8.10000 4.0
8.10500 9.0
8.11000 9.0
8.11500 16.0
8.12000 11.0
8.12500 14.0
8.13000 10.0
8.13500 15.0
8.14000 11.0
8.14500 9.0
8.15000 17.0
8.15500 14.0
8.16000 13.0
8.16500 14.0
8.17000 13.0
8.17500 13.0
8.18000 16.0
8.18500 5.0
8.19000 14.0
8.19500 13.0
8.20000 14.0
8.20500 5.0
8.21000 11.0
8.21500 11.0
8.22000 20.0
8.22500 10.0
8.23000 9.0
8.23500 9.0
8.24000 10.0
8.24500 15.0
8.25000 12.0
8.25500 12.0
8.26000 19.0
8.26500 12.0
8.27000 19.0
8.27500 18.0
8.28000 14.0
8.28500 10.0
8.29000 15.0
8.29500 16.0
8.30000 13.0
8.30500 22.0
8.31000 10.0
8.31500 13.0
8.32000 22.0
8.32500 8.0
8.33000 14.0
8.33500 12.0
8.34000 19.0
8.34500 8.0
8.35000 10.0
8.35500 8.0
8.36000 9.0
8.36500 14.0
8.37000 8.0
8.37500 8.0
8.38000 8.0
8.38500 10.0
8.39000 8.0
8.39500 14.0
8.40000 11.0
8.40500 12.0
8.41000 9.0
8.41500 12.0
8.42000 12.0
8.42500 23.0
8.43000 19.0
8.43500 11.0
8.44000 5.0
8.44500 9.0
8.45000 11.0
8.45500 10.0
8.46000 5.0
8.46500 4.0
8.47000 6.0
8.47500 11.0
8.48000 8.0
8.48500 12.0
8.49000 5.0
8.49500 14.0
8.50000 7.0
8.50500 10.0
8.51000 16.0
8.51500 16.0
8.52000 8.0
8.52500 24.0
8.53000 16.0
8.53500 12.0
8.54000 19.0
8.54500 13.0
8.55000 18.0
8.55500 12.0
8.56000 12.0
8.56500 19.0
8.57000 8.0
8.57500 12.0
8.58000 4.0
8.58500 8.0
8.59000 9.0
8.59500 16.0
8.60000 11.0
8.60500 9.0
8.61000 9.0
8.61500 12.0
8.62000 7.0
8.62500 7.0
8.63000 10.0
8.63500 15.0
8.64000 3.0
8.64500 6.0
8.65000 3.0
8.65500 9.0
8.66000 7.0
8.66500 11.0
8.67000 8.0
8.67500 16.0
8.68000 7.0
8.68500 8.0
8.69000 9.0
8.69500 7.0
8.70000 22.0
8.70500 11.0
8.71000 3.0
8.71500 10.0
8.72000 13.0
8.72500 8.0
8.73000 24.0
8.73500 6.0
8.74000 8.0
8.74500 5.0
8.75000 12.0
8.75500 9.0
8.76000 17.0
8.76500 9.0
8.77000 5.0
8.77500 10.0
8.78000 6.0
8.78500 17.0
8.79000 10.0
8.79500 15.0
8.80000 17.0
8.80500 8.0
8.81000 5.0
8.81500 12.0
8.82000 17.0
8.82500 6.0
8.83000 15.0
8.83500 11.0
8.84000 16.0
8.84500 20.0
8.85000 10.0
8.85500 21.0
8.86000 12.0
8.86500 17.0
8.87000 8.0
8.87500 20.0
8.88000 13.0
8.88500 21.0
8.89000 16.0
8.89500 17.0
8.90000 14.0
8.90500 12.0
8.91000 14.0
8.91500 12.0
8.92000 15.0
8.92500 16.0
8.93000 10.0
8.93500 15.0
8.94000 17.0
8.94500 12.0
8.95000 19.0
8.95500 5.0
8.96000 20.0
8.96500 11.0
8.97000 16.0
8.97500 12.0
8.98000 10.0
8.98500 13.0
8.99000 8.0
8.99500 11.0
9.00000 8.0
9.00500 9.0
9.01000 11.0
9.01500 19.0
9.02000 13.0
9.02500 19.0
9.03000 5.0
9.03500 14.0
9.04000 15.0
9.04500 11.0
9.05000 5.0
9.05500 17.0
9.06000 11.0
9.06500 12.0
9.07000 23.0
9.07500 13.0
9.08000 7.0
9.08500 6.0
9.09000 14.0
9.09500 13.0
9.10000 11.0
9.10500 14.0
9.11000 16.0
9.11500 14.0
9.12000 11.0
9.12500 4.0
9.13000 17.0
9.13500 14.0
9.14000 12.0
9.14500 11.0
9.15000 16.0
9.15500 15.0
9.16000 11.0
9.16500 10.0
9.17000 10.0
9.17500 11.0
9.18000 12.0
9.18500 15.0
9.19000 16.0
9.19500 9.0
9.20000 13.0
9.20500 12.0
9.21000 11.0
9.21500 16.0
9.22000 23.0
9.22500 20.0
9.23000 13.0
9.23500 13.0
9.24000 19.0
9.24500 15.0
9.25000 19.0
9.25500 24.0
9.26000 21.0
9.26500 12.0
9.27000 13.0
9.27500 22.0
9.28000 19.0
9.28500 15.0
9.29000 12.0
9.29500 20.0
9.30000 14.0
9.30500 21.0
9.31000 13.0
9.31500 18.0
9.32000 17.0
9.32500 20.0
9.33000 14.0
9.33500 13.0
9.34000 13.0
9.34500 17.0
9.35000 11.0
9.35500 15.0
9.36000 13.0
9.36500 15.0
9.37000 26.0
9.37500 31.0
9.38000 10.0
9.38500 10.0
9.39000 8.0
9.39500 12.0
9.40000 21.0
9.40500 17.0
9.41000 13.0
9.41500 11.0
9.42000 7.0
9.42500 10.0
9.43000 10.0
9.43500 17.0
9.44000 19.0
9.44500 15.0
9.45000 15.0
9.45500 27.0
9.46000 17.0
9.46500 11.0
9.47000 18.0
9.47500 16.0
9.48000 11.0
9.48500 8.0
9.49000 21.0
9.49500 17.0
9.50000 12.0
9.50500 15.0
9.51000 13.0
9.51500 14.0
9.52000 16.0
9.52500 15.0
9.53000 12.0
9.53500 6.0
9.54000 19.0
9.54500 22.0
9.55000 15.0
9.55500 18.0
9.56000 18.0
9.56500 15.0
9.57000 19.0
9.57500 18.0
9.58000 15.0
9.58500 21.0
9.59000 21.0
9.59500 26.0
9.60000 29.0
9.60500 22.0
9.61000 28.0
9.61500 26.0
9.62000 30.0
9.62500 27.0
9.63000 25.0
9.63500 21.0
9.64000 28.0
9.64500 26.0
9.65000 26.0
9.65500 24.0
9.66000 49.0
9.66500 41.0
9.67000 49.0
9.67500 58.0
9.68000 54.0
9.68500 32.0
9.69000 57.0
9.69500 42.0
9.70000 50.0
9.70500 45.0
9.71000 32.0
9.71500 41.0
9.72000 38.0
9.72500 52.0
9.73000 22.0
9.73500 26.0
9.74000 20.0
9.74500 22.0
9.75000 12.0
9.75500 14.0
9.76000 12.0
9.76500 10.0
9.77000 8.0
9.77500 18.0
9.78000 13.0
9.78500 7.0
9.79000 13.0
9.79500 11.0
9.80000 8.0
9.80500 12.0
9.81000 7.0
9.81500 11.0
9.82000 9.0
9.82500 14.0
9.83000 20.0
9.83500 7.0
9.84000 9.0
9.84500 14.0
9.85000 7.0
9.85500 9.0
9.86000 8.0
9.86500 11.0
9.87000 11.0
9.87500 11.0
9.88000 5.0
9.88500 4.0
9.89000 5.0
9.89500 9.0
9.90000 13.0
9.90500 9.0
9.91000 11.0
9.91500 5.0
9.92000 8.0
9.92500 6.0
9.93000 13.0
9.93500 6.0
9.94000 6.0
9.94500 9.0
9.95000 12.0
9.95500 12.0
9.96000 13.0
9.96500 11.0
9.97000 7.0
9.97500 12.0
9.98000 9.0
9.98500 19.0
9.99000 14.0
9.99500 7.0
