0.00500 36062064.0
0.01500 45209900.0
0.02500 42436168.0
0.03500 31364332.0
0.04500 17960820.0
0.05500 8076668.0
0.06500 3162790.0
0.07500 1746022.0
0.08500 1731792.0
0.09500 1899200.0
0.10500 2137085.0
0.11500 2407894.0
0.12500 2640507.0
0.13500 2903771.0
0.14500 3124296.0
0.15500 3365916.0
0.16500 3669134.0
0.17500 3891580.0
0.18500 4150159.0
0.19500 4408568.0
0.20500 4639239.0
0.21500 4959011.0
0.22500 5198676.0
0.23500 5474658.0
0.24500 5757965.0
0.25500 5999080.0
0.26500 6317829.0
0.27500 6578768.0
0.28500 6836985.0
0.29500 7130410.0
0.30500 7317454.0
0.31500 7644575.0
0.32500 7895893.0
0.33500 8161725.0
0.34500 8454501.0
0.35500 8608387.0
0.36500 8963862.0
0.37500 9237235.0
0.38500 9405347.0
0.39500 9720322.0
0.40500 9916694.0
0.41500 10178445.0
0.42500 10493905.0
0.43500 10618379.0
0.44500 10879213.0
0.45500 11041751.0
0.46500 11316101.0
0.47500 11571933.0
0.48500 11674403.0
0.49500 11949805.0
0.50500 12148914.0
0.51500 12339197.0
0.52500 12539078.0
0.53500 12559682.0
0.54500 12723646.0
0.55500 12861017.0
0.56500 12861641.0
0.57500 13037390.0
0.58500 12919038.0
0.59500 13028851.0
0.60500 13118450.0
0.61500 12914880.0
0.62500 12984035.0
0.63500 12794502.0
0.64500 12596997.0
0.65500 12353315.0
0.66500 11990570.0
0.67500 11548242.0
0.68500 10950479.0
0.69500 10323644.0
0.70500 9661900.0
0.71500 8777144.0
0.72500 7928840.0
0.73500 7156154.0
0.74500 6397916.0
0.75500 5756971.0
0.76500 5162446.0
0.77500 4657473.0
0.78500 4222021.0
0.79500 3789167.0
0.80500 3461275.0
0.81500 3174465.0
0.82500 2904161.0
0.83500 2706568.0
0.84500 2481857.0
0.85500 2311871.0
0.86500 2152390.0
0.87500 2002783.0
0.88500 1873307.0
0.89500 1743366.0
0.90500 1639883.0
0.91500 1544343.0
0.92500 1451339.0
0.93500 1380347.0
0.94500 1305318.0
0.95500 1240507.0
0.96500 1175623.0
0.97500 1104278.0
0.98500 1055599.0
0.99500 1007502.0
1.00500 961631.0
1.01500 912681.0
1.02500 866178.0
1.03500 831521.0
1.04500 795493.0
1.05500 754581.0
1.06500 730368.0
1.07500 697050.0
1.08500 667554.0
1.09500 643208.0
1.10500 617406.0
1.11500 594692.0
1.12500 568536.0
1.13500 549455.0
1.14500 532240.0
1.15500 512066.0
1.16500 497494.0
1.17500 482165.0
1.18500 469630.0
1.19500 456968.0
1.20500 437699.0
1.21500 422904.0
1.22500 411267.0
1.23500 399893.0
1.24500 391193.0
1.25500 381785.0
1.26500 373064.0
1.27500 366179.0
1.28500 360585.0
1.29500 354302.0
1.30500 348854.0
1.31500 343177.0
1.32500 337380.0
1.33500 333992.0
1.34500 329001.0
1.35500 327721.0
1.36500 325566.0
1.37500 322886.0
1.38500 322210.0
1.39500 322959.0
1.40500 322186.0
1.41500 323067.0
1.42500 327624.0
1.43500 329036.0
1.44500 335493.0
1.45500 343089.0
1.46500 352905.0
1.47500 363981.0
1.48500 379996.0
1.49500 399017.0
1.50500 415708.0
1.51500 438987.0
1.52500 469394.0
1.53500 509695.0
1.54500 562908.0
1.55500 629191.0
1.56500 727447.0
1.57500 860653.0
1.58500 1059250.0
1.59500 1367101.0
1.60500 1822961.0
1.61500 2547526.0
1.62500 3408364.0
1.63500 4145101.0
1.64500 4399519.0
1.65500 4035679.0
1.66500 3222651.0
1.67500 2314421.0
1.68500 1590781.0
1.69500 1062227.0
1.70500 738541.0
1.71500 508520.0
1.72500 363713.0
1.73500 270803.0
1.74500 201851.0
1.75500 155417.0
1.76500 121061.0
1.77500 93809.0
1.78500 75691.0
1.79500 59394.0
1.80500 48473.0
1.81500 40088.0
1.82500 33179.0
1.83500 27524.0
1.84500 23085.0
1.85500 19362.0
1.86500 16525.0
1.87500 13849.0
1.88500 11923.0
1.89500 10483.0
1.90500 9195.0
1.91500 8135.0
1.92500 6904.0
1.93500 6447.0
1.94500 5796.0
1.95500 5281.0
1.96500 4756.0
1.97500 4279.0
1.98500 4067.0
1.99500 3770.0
2.00500 3513.0
2.01500 3238.0
2.02500 3097.0
2.03500 2978.0
2.04500 2839.0
2.05500 2655.0
2.06500 2590.0
2.07500 2435.0
2.08500 2325.0
2.09500 2299.0
2.10500 2175.0
2.11500 2144.0
2.12500 2050.0
2.13500 1948.0
2.14500 2013.0
2.15500 1955.0
2.16500 1889.0
2.17500 1891.0
2.18500 1798.0
2.19500 1772.0
2.20500 1728.0
2.21500 1691.0
2.22500 1665.0
2.23500 1634.0
2.24500 1626.0
2.25500 1712.0
2.26500 1635.0
2.27500 1652.0
2.28500 1656.0
2.29500 1635.0
2.30500 1577.0
2.31500 1617.0
2.32500 1535.0
2.33500 1533.0
2.34500 1632.0
2.35500 1515.0
2.36500 1551.0
2.37500 1567.0
2.38500 1551.0
2.39500 1494.0
2.40500 1487.0
2.41500 1417.0
2.42500 1457.0
2.43500 1451.0
2.44500 1408.0
2.45500 1375.0
2.46500 1345.0
2.47500 1343.0
2.48500 1312.0
2.49500 1300.0
2.50500 1320.0
2.51500 1294.0
2.52500 1295.0
2.53500 1214.0
2.54500 1212.0
2.55500 1264.0
2.56500 1282.0
2.57500 1231.0
2.58500 1203.0
2.59500 1266.0
2.60500 1262.0
2.61500 1150.0
2.62500 1184.0
2.63500 1146.0
2.64500 1111.0
2.65500 1087.0
2.66500 1035.0
2.67500 1084.0
2.68500 1034.0
2.69500 1037.0
2.70500 1010.0
2.71500 1032.0
2.72500 1009.0
2.73500 1070.0
2.74500 936.0
2.75500 860.0
2.76500 853.0
2.77500 867.0
2.78500 827.0
2.79500 815.0
2.80500 753.0
2.81500 753.0
2.82500 705.0
2.83500 720.0
2.84500 711.0
2.85500 657.0
2.86500 675.0
2.87500 684.0
2.88500 587.0
2.89500 597.0
2.90500 568.0
2.91500 555.0
2.92500 541.0
2.93500 544.0
2.94500 702.0
2.95500 856.0
2.96500 1137.0
2.97500 1413.0
2.98500 2030.0
2.99500 3014.0
3.00500 5229.0
3.01500 11765.0
3.02500 28098.0
3.03500 53801.0
3.04500 74238.0
3.05500 78611.0
3.06500 69288.0
3.07500 54514.0
3.08500 41584.0
3.09500 32049.0
3.10500 24938.0
3.11500 20125.0
3.12500 16722.0
3.13500 13999.0
3.14500 11799.0
3.15500 10725.0
3.16500 9079.0
3.17500 8217.0
3.18500 7084.0
3.19500 6587.0
3.20500 5885.0
3.21500 5514.0
3.22500 4968.0
3.23500 4573.0
3.24500 4185.0
3.25500 3910.0
3.26500 3797.0
3.27500 3499.0
3.28500 3255.0
3.29500 3027.0
3.30500 3170.0
3.31500 3082.0
3.32500 2814.0
3.33500 2660.0
3.34500 2718.0
3.35500 2495.0
3.36500 2490.0
3.37500 2382.0
3.38500 2190.0
3.39500 2212.0
3.40500 2131.0
3.41500 2028.0
3.42500 1924.0
3.43500 1907.0
3.44500 1889.0
3.45500 1867.0
3.46500 1820.0
3.47500 1694.0
3.48500 1697.0
3.49500 1682.0
3.50500 1581.0
3.51500 1617.0
3.52500 1478.0
3.53500 1509.0
3.54500 1432.0
3.55500 1466.0
3.56500 1411.0
3.57500 1343.0
3.58500 1391.0
3.59500 1268.0
3.60500 1307.0
3.61500 1242.0
3.62500 1294.0
3.63500 1251.0
3.64500 1152.0
3.65500 1197.0
3.66500 1169.0
3.67500 1082.0
3.68500 1114.0
3.69500 1120.0
3.70500 1057.0
3.71500 1158.0
3.72500 1036.0
3.73500 1058.0
3.74500 1083.0
3.75500 1014.0
3.76500 900.0
3.77500 948.0
3.78500 1013.0
3.79500 928.0
3.80500 940.0
3.81500 926.0
3.82500 935.0
3.83500 909.0
3.84500 900.0
3.85500 834.0
3.86500 839.0
3.87500 807.0
3.88500 766.0
3.89500 796.0
3.90500 754.0
3.91500 773.0
3.92500 687.0
3.93500 709.0
3.94500 700.0
3.95500 677.0
3.96500 624.0
3.97500 606.0
3.98500 674.0
3.99500 601.0
4.00500 546.0
4.01500 585.0
4.02500 554.0
4.03500 544.0
4.04500 549.0
4.05500 520.0
4.06500 542.0
4.07500 566.0
4.08500 535.0
4.09500 493.0
4.10500 483.0
4.11500 484.0
4.12500 482.0
4.13500 494.0
4.14500 434.0
4.15500 486.0
4.16500 470.0
4.17500 474.0
4.18500 487.0
4.19500 423.0
4.20500 392.0
4.21500 374.0
4.22500 350.0
4.23500 380.0
4.24500 392.0
4.25500 411.0
4.26500 439.0
4.27500 355.0
4.28500 359.0
4.29500 385.0
4.30500 322.0
4.31500 363.0
4.32500 332.0
4.33500 455.0
4.34500 450.0
4.35500 452.0
4.36500 355.0
4.37500 345.0
4.38500 399.0
4.39500 356.0
4.40500 363.0
4.41500 362.0
4.42500 414.0
4.43500 492.0
4.44500 548.0
4.45500 778.0
4.46500 1231.0
4.47500 2422.0
4.48500 4264.0
4.49500 5884.0
4.50500 6643.0
4.51500 6268.0
4.52500 5327.0
4.53500 4210.0
4.54500 3568.0
4.55500 2863.0
4.56500 2443.0
4.57500 1952.0
4.58500 1715.0
4.59500 1475.0
4.60500 1297.0
4.61500 1198.0
4.62500 1010.0
4.63500 887.0
4.64500 808.0
4.65500 806.0
4.66500 718.0
4.67500 652.0
4.68500 622.0
4.69500 612.0
4.70500 475.0
4.71500 484.0
4.72500 447.0
4.73500 412.0
4.74500 402.0
4.75500 382.0
4.76500 355.0
4.77500 371.0
4.78500 294.0
4.79500 286.0
4.80500 287.0
4.81500 258.0
4.82500 313.0
4.83500 263.0
4.84500 301.0
4.85500 265.0
4.86500 237.0
4.87500 317.0
4.88500 247.0
4.89500 237.0
4.90500 227.0
4.91500 207.0
4.92500 170.0
4.93500 215.0
4.94500 170.0
4.95500 148.0
4.96500 187.0
4.97500 166.0
4.98500 187.0
4.99500 194.0
5.00500 134.0
5.01500 137.0
5.02500 169.0
5.03500 125.0
5.04500 141.0
5.05500 157.0
5.06500 142.0
5.07500 153.0
5.08500 169.0
5.09500 185.0
5.10500 203.0
5.11500 199.0
5.12500 187.0
5.13500 152.0
5.14500 146.0
5.15500 240.0
5.16500 203.0
5.17500 182.0
5.18500 188.0
5.19500 125.0
5.20500 165.0
5.21500 163.0
5.22500 139.0
5.23500 142.0
5.24500 162.0
5.25500 148.0
5.26500 154.0
5.27500 108.0
5.28500 140.0
5.29500 112.0
5.30500 159.0
5.31500 181.0
5.32500 158.0
5.33500 154.0
5.34500 164.0
5.35500 164.0
5.36500 156.0
5.37500 142.0
5.38500 176.0
5.39500 145.0
5.40500 168.0
5.41500 155.0
5.42500 172.0
5.43500 179.0
5.44500 222.0
5.45500 160.0
5.46500 153.0
5.47500 160.0
5.48500 140.0
5.49500 154.0
5.50500 162.0
5.51500 157.0
5.52500 156.0
5.53500 188.0
5.54500 211.0
5.55500 167.0
5.56500 143.0
5.57500 155.0
5.58500 157.0
5.59500 170.0
5.60500 160.0
5.61500 161.0
5.62500 192.0
5.63500 208.0
5.64500 251.0
5.65500 207.0
5.66500 155.0
5.67500 156.0
5.68500 161.0
5.69500 172.0
5.70500 195.0
5.71500 249.0
5.72500 177.0
5.73500 164.0
5.74500 207.0
5.75500 201.0
5.76500 186.0
5.77500 184.0
5.78500 183.0
5.79500 219.0
5.80500 198.0
5.81500 174.0
5.82500 185.0
5.83500 182.0
5.84500 177.0
5.85500 170.0
5.86500 175.0
5.87500 179.0
5.88500 167.0
5.89500 208.0
5.90500 206.0
5.91500 195.0
5.92500 180.0
5.93500 238.0
5.94500 267.0
5.95500 265.0
5.96500 341.0
5.97500 373.0
5.98500 410.0
5.99500 371.0
6.00500 360.0
6.01500 305.0
6.02500 290.0
6.03500 341.0
6.04500 368.0
6.05500 310.0
6.06500 313.0
6.07500 306.0
6.08500 303.0
6.09500 292.0
6.10500 315.0
6.11500 354.0
6.12500 224.0
6.13500 241.0
6.14500 198.0
6.15500 213.0
6.16500 221.0
6.17500 198.0
6.18500 193.0
6.19500 222.0
6.20500 219.0
6.21500 209.0
6.22500 211.0
6.23500 225.0
6.24500 186.0
6.25500 241.0
6.26500 261.0
6.27500 199.0
6.28500 180.0
6.29500 176.0
6.30500 193.0
6.31500 195.0
6.32500 214.0
6.33500 225.0
6.34500 220.0
6.35500 213.0
6.36500 267.0
6.37500 254.0
6.38500 247.0
6.39500 275.0
6.40500 273.0
6.41500 288.0
6.42500 298.0
6.43500 312.0
6.44500 320.0
6.45500 315.0
6.46500 314.0
6.47500 312.0
6.48500 284.0
6.49500 232.0
6.50500 268.0
6.51500 323.0
6.52500 247.0
6.53500 254.0
6.54500 307.0
6.55500 232.0
6.56500 228.0
6.57500 240.0
6.58500 202.0
6.59500 167.0
6.60500 213.0
6.61500 220.0
6.62500 221.0
6.63500 228.0
6.64500 212.0
6.65500 231.0
6.66500 201.0
6.67500 199.0
6.68500 237.0
6.69500 223.0
6.70500 229.0
6.71500 264.0
6.72500 235.0
6.73500 228.0
6.74500 229.0
6.75500 242.0
6.76500 290.0
6.77500 254.0
6.78500 319.0
6.79500 264.0
6.80500 333.0
6.81500 304.0
6.82500 346.0
6.83500 358.0
6.84500 336.0
6.85500 321.0
6.86500 293.0
6.87500 211.0
6.88500 238.0
6.89500 246.0
6.90500 307.0
6.91500 294.0
6.92500 263.0
6.93500 288.0
6.94500 295.0
6.95500 286.0
6.96500 262.0
6.97500 259.0
6.98500 289.0
6.99500 237.0
7.00500 228.0
7.01500 225.0
7.02500 226.0
7.03500 221.0
