0.00500 36187836.0
0.01500 40628288.0
0.02500 32061264.0
0.03500 20212848.0
0.04500 11260500.0
0.05500 6624800.0
0.06500 5066763.0
0.07500 5179070.0
0.08500 5809343.0
0.09500 6497553.0
0.10500 7167689.0
0.11500 7889107.0
0.12500 8470407.0
0.13500 9108804.0
0.14500 9761587.0
0.15500 10389996.0
0.16500 11023865.0
0.17500 11600077.0
0.18500 12158794.0
0.19500 12694975.0
0.20500 13283659.0
0.21500 13864079.0
0.22500 14382482.0
0.23500 14897544.0
0.24500 15323515.0
0.25500 15878741.0
0.26500 16377303.0
0.27500 16841408.0
0.28500 17222210.0
0.29500 17510536.0
0.30500 17826184.0
0.31500 18208284.0
0.32500 18567164.0
0.33500 18903482.0
0.34500 19179408.0
0.35500 19477896.0
0.36500 19823428.0
0.37500 20154740.0
0.38500 20490328.0
0.39500 20761210.0
0.40500 20958992.0
0.41500 21161308.0
0.42500 21296280.0
0.43500 21420152.0
0.44500 21490950.0
0.45500 21576648.0
0.46500 21658758.0
0.47500 21744550.0
0.48500 21800286.0
0.49500 21748176.0
0.50500 21783164.0
0.51500 21603452.0
0.52500 21445436.0
0.53500 21027312.0
0.54500 20528650.0
0.55500 19915700.0
0.56500 18904926.0
0.57500 17743768.0
0.58500 16121261.0
0.59500 14072767.0
0.60500 12020290.0
0.61500 10019704.0
0.62500 8256181.0
0.63500 6815466.0
0.64500 5716677.0
0.65500 4856806.0
0.66500 4180287.0
0.67500 3646513.0
0.68500 3197319.0
0.69500 2828962.0
0.70500 2514640.0
0.71500 2241201.0
0.72500 2001992.0
0.73500 1806333.0
0.74500 1614820.0
0.75500 1459836.0
0.76500 1330989.0
0.77500 1186943.0
0.78500 1066376.0
0.79500 973526.0
0.80500 883454.0
0.81500 796310.0
0.82500 727751.0
0.83500 678883.0
0.84500 619228.0
0.85500 553832.0
0.86500 514855.0
0.87500 477276.0
0.88500 433035.0
0.89500 390907.0
0.90500 369253.0
0.91500 346759.0
0.92500 311449.0
0.93500 280571.0
0.94500 268905.0
0.95500 255072.0
0.96500 227624.0
0.97500 204711.0
0.98500 194947.0
0.99500 188695.0
1.00500 170174.0
1.01500 150295.0
1.02500 142224.0
1.03500 139760.0
1.04500 129374.0
1.05500 111439.0
1.06500 103537.0
1.07500 104111.0
1.08500 99250.0
1.09500 86825.0
1.10500 77364.0
1.11500 75908.0
1.12500 76261.0
1.13500 68304.0
1.14500 57867.0
1.15500 53801.0
1.16500 56326.0
1.17500 54132.0
1.18500 45661.0
1.19500 39549.0
1.20500 39902.0
1.21500 40945.0
1.22500 38043.0
1.23500 30988.0
1.24500 28477.0
1.25500 30272.0
1.26500 30880.0
1.27500 26216.0
1.28500 21383.0
1.29500 21214.0
1.30500 23117.0
1.31500 22109.0
1.32500 18385.0
1.33500 15195.0
1.34500 16073.0
1.35500 17911.0
1.36500 16359.0
1.37500 12925.0
1.38500 11595.0
1.39500 12700.0
1.40500 13688.0
1.41500 11719.0
1.42500 9490.0
1.43500 9226.0
1.44500 10603.0
1.45500 10751.0
1.46500 8931.0
1.47500 7257.0
1.48500 7570.0
1.49500 8831.0
1.50500 8510.0
1.51500 6728.0
1.52500 5577.0
1.53500 6178.0
1.54500 7384.0
1.55500 7219.0
1.56500 5471.0
1.57500 4638.0
1.58500 5335.0
1.59500 6523.0
1.60500 6224.0
1.61500 4971.0
1.62500 4278.0
1.63500 4825.0
1.64500 5683.0
1.65500 5576.0
1.66500 4603.0
1.67500 4080.0
1.68500 4638.0
1.69500 5023.0
1.70500 4736.0
1.71500 4236.0
1.72500 4158.0
1.73500 4395.0
1.74500 4657.0
1.75500 4330.0
1.76500 4077.0
1.77500 4032.0
1.78500 4740.0
1.79500 4892.0
1.80500 4179.0
1.81500 3683.0
1.82500 4096.0
1.83500 5081.0
1.84500 5401.0
1.85500 4853.0
1.86500 4085.0
1.87500 4131.0
1.88500 5254.0
1.89500 6191.0
1.90500 5817.0
1.91500 5382.0
1.92500 4855.0
1.93500 5616.0
1.94500 6666.0
1.95500 7144.0
1.96500 6949.0
1.97500 6687.0
1.98500 7056.0
1.99500 7939.0
2.00500 9204.0
2.01500 10552.0
2.02500 12175.0
2.03500 13019.0
2.04500 13626.0
2.05500 15407.0
2.06500 20193.0
2.07500 27019.0
2.08500 34229.0
2.09500 38441.0
2.10500 42628.0
2.11500 53263.0
2.12500 79348.0
2.13500 121444.0
2.14500 175128.0
2.15500 230710.0
2.16500 271726.0
2.17500 285653.0
2.18500 270692.0
2.19500 230781.0
2.20500 176886.0
2.21500 126749.0
2.22500 87803.0
2.23500 61516.0
2.24500 48649.0
2.25500 41623.0
2.26500 36959.0
2.27500 31731.0
2.28500 25744.0
2.29500 20526.0
2.30500 18127.0
2.31500 16497.0
2.32500 15647.0
2.33500 13974.0
2.34500 11866.0
2.35500 10156.0
2.36500 9074.0
2.37500 8700.0
2.38500 8244.0
2.39500 7690.0
2.40500 7094.0
2.41500 6170.0
2.42500 5558.0
2.43500 5340.0
2.44500 5093.0
2.45500 5069.0
2.46500 4670.0
2.47500 4189.0
2.48500 4024.0
2.49500 3656.0
2.50500 3555.0
2.51500 3547.0
2.52500 3374.0
2.53500 3064.0
2.54500 2843.0
2.55500 2689.0
2.56500 2546.0
2.57500 2567.0
2.58500 2477.0
2.59500 2256.0
2.60500 2035.0
2.61500 1966.0
2.62500 1864.0
2.63500 1985.0
2.64500 1854.0
2.65500 1703.0
2.66500 1638.0
2.67500 1606.0
2.68500 1564.0
2.69500 1521.0
2.70500 1511.0
2.71500 1565.0
2.72500 1330.0
2.73500 1294.0
2.74500 1460.0
2.75500 1327.0
2.76500 1333.0
2.77500 1270.0
2.78500 1131.0
2.79500 1129.0
2.80500 1092.0
2.81500 1088.0
2.82500 975.0
2.83500 993.0
2.84500 977.0
2.85500 913.0
2.86500 967.0
2.87500 928.0
2.88500 936.0
2.89500 941.0
2.90500 927.0
2.91500 855.0
2.92500 777.0
2.93500 773.0
2.94500 813.0
2.95500 858.0
2.96500 836.0
2.97500 780.0
2.98500 751.0
2.99500 748.0
3.00500 739.0
3.01500 782.0
3.02500 742.0
3.03500 666.0
3.04500 611.0
3.05500 719.0
3.06500 670.0
3.07500 658.0
3.08500 568.0
3.09500 648.0
3.10500 611.0
3.11500 593.0
3.12500 649.0
3.13500 630.0
3.14500 634.0
3.15500 598.0
3.16500 505.0
3.17500 545.0
3.18500 573.0
3.19500 490.0
3.20500 556.0
3.21500 541.0
3.22500 476.0
3.23500 512.0
3.24500 473.0
3.25500 517.0
3.26500 524.0
3.27500 497.0
3.28500 473.0
3.29500 432.0
3.30500 469.0
3.31500 439.0
3.32500 457.0
3.33500 444.0
3.34500 443.0
3.35500 413.0
3.36500 387.0
3.37500 424.0
3.38500 408.0
3.39500 454.0
3.40500 389.0
3.41500 343.0
3.42500 368.0
3.43500 369.0
3.44500 358.0
3.45500 396.0
3.46500 375.0
3.47500 405.0
3.48500 362.0
3.49500 401.0
3.50500 417.0
3.51500 412.0
3.52500 414.0
3.53500 383.0
3.54500 354.0
3.55500 366.0
3.56500 367.0
3.57500 368.0
3.58500 339.0
3.59500 346.0
3.60500 317.0
3.61500 363.0
3.62500 369.0
3.63500 356.0
3.64500 332.0
3.65500 345.0
3.66500 329.0
3.67500 318.0
3.68500 395.0
3.69500 347.0
3.70500 367.0
3.71500 388.0
3.72500 355.0
3.73500 356.0
3.74500 314.0
3.75500 268.0
3.76500 284.0
3.77500 288.0
3.78500 326.0
3.79500 331.0
3.80500 277.0
3.81500 293.0
3.82500 341.0
3.83500 272.0
3.84500 309.0
3.85500 270.0
3.86500 308.0
3.87500 309.0
3.88500 357.0
3.89500 365.0
3.90500 294.0
3.91500 275.0
3.92500 281.0
3.93500 257.0
3.94500 287.0
3.95500 275.0
3.96500 235.0
3.97500 222.0
3.98500 219.0
3.99500 240.0
4.00500 266.0
4.01500 273.0
4.02500 315.0
4.03500 321.0
4.04500 327.0
4.05500 406.0
4.06500 466.0
4.07500 545.0
4.08500 586.0
4.09500 584.0
4.10500 727.0
4.11500 918.0
4.12500 1315.0
4.13500 1872.0
4.14500 2435.0
4.15500 2863.0
4.16500 3294.0
4.17500 3290.0
4.18500 3102.0
4.19500 2678.0
4.20500 2139.0
4.21500 1877.0
4.22500 1426.0
4.23500 1140.0
4.24500 866.0
4.25500 683.0
4.26500 651.0
4.27500 659.0
4.28500 600.0
4.29500 551.0
4.30500 528.0
4.31500 465.0
4.32500 450.0
4.33500 429.0
4.34500 409.0
4.35500 362.0
4.36500 341.0
4.37500 370.0
4.38500 360.0
4.39500 440.0
4.40500 378.0
4.41500 416.0
4.42500 360.0
4.43500 385.0
4.44500 300.0
4.45500 319.0
4.46500 266.0
4.47500 266.0
4.48500 288.0
4.49500 316.0
4.50500 303.0
4.51500 244.0
4.52500 293.0
4.53500 323.0
4.54500 302.0
4.55500 312.0
4.56500 227.0
4.57500 243.0
4.58500 276.0
4.59500 264.0
4.60500 178.0
4.61500 195.0
4.62500 242.0
4.63500 334.0
4.64500 361.0
4.65500 301.0
4.66500 310.0
4.67500 216.0
4.68500 196.0
4.69500 171.0
4.70500 156.0
4.71500 161.0
4.72500 182.0
4.73500 195.0
4.74500 177.0
4.75500 171.0
4.76500 170.0
4.77500 170.0
4.78500 169.0
4.79500 171.0
4.80500 169.0
4.81500 179.0
4.82500 163.0
4.83500 202.0
4.84500 226.0
4.85500 117.0
4.86500 146.0
4.87500 157.0
4.88500 158.0
4.89500 179.0
4.90500 176.0
4.91500 156.0
4.92500 182.0
4.93500 156.0
4.94500 152.0
4.95500 123.0
4.96500 136.0
4.97500 159.0
4.98500 135.0
4.99500 142.0
5.00500 139.0
5.01500 138.0
5.02500 186.0
5.03500 169.0
5.04500 179.0
5.05500 185.0
5.06500 159.0
5.07500 134.0
5.08500 125.0
5.09500 149.0
5.10500 126.0
5.11500 135.0
5.12500 120.0
5.13500 119.0
5.14500 116.0
5.15500 155.0
5.16500 147.0
5.17500 125.0
5.18500 109.0
5.19500 85.0
5.20500 120.0
5.21500 135.0
5.22500 133.0
5.23500 139.0
5.24500 133.0
5.25500 132.0
5.26500 119.0
5.27500 151.0
5.28500 121.0
5.29500 143.0
5.30500 169.0
5.31500 159.0
5.32500 136.0
5.33500 129.0
5.34500 120.0
5.35500 118.0
5.36500 126.0
5.37500 147.0
5.38500 119.0
5.39500 127.0
5.40500 127.0
5.41500 147.0
5.42500 152.0
5.43500 152.0
5.44500 143.0
5.45500 165.0
5.46500 145.0
5.47500 156.0
5.48500 156.0
5.49500 145.0
5.50500 154.0
5.51500 126.0
5.52500 153.0
5.53500 146.0
5.54500 104.0
5.55500 175.0
5.56500 183.0
5.57500 158.0
5.58500 177.0
5.59500 232.0
5.60500 200.0
5.61500 223.0
5.62500 187.0
5.63500 163.0
5.64500 175.0
5.65500 166.0
5.66500 222.0
5.67500 127.0
5.68500 143.0
5.69500 127.0
5.70500 125.0
5.71500 152.0
5.72500 214.0
5.73500 243.0
5.74500 206.0
5.75500 180.0
5.76500 139.0
5.77500 102.0
5.78500 94.0
5.79500 105.0
5.80500 146.0
5.81500 162.0
5.82500 157.0
5.83500 131.0
5.84500 127.0
5.85500 123.0
5.86500 118.0
5.87500 158.0
5.88500 146.0
5.89500 136.0
5.90500 122.0
5.91500 132.0
5.92500 108.0
5.93500 130.0
5.94500 90.0
5.95500 97.0
5.96500 139.0
5.97500 115.0
5.98500 118.0
5.99500 120.0
6.00500 104.0
6.01500 129.0
6.02500 149.0
6.03500 149.0
6.04500 155.0
6.05500 151.0
6.06500 145.0
6.07500 95.0
6.08500 106.0
6.09500 103.0
6.10500 145.0
6.11500 135.0
6.12500 183.0
6.13500 133.0
6.14500 119.0
6.15500 143.0
6.16500 140.0
6.17500 201.0
6.18500 215.0
6.19500 267.0
6.20500 297.0
6.21500 347.0
6.22500 331.0
6.23500 301.0
6.24500 246.0
6.25500 208.0
6.26500 230.0
6.27500 180.0
6.28500 210.0
6.29500 217.0
6.30500 161.0
6.31500 161.0
6.32500 117.0
6.33500 204.0
6.34500 174.0
6.35500 204.0
6.36500 191.0
6.37500 191.0
6.38500 181.0
6.39500 159.0
6.40500 76.0
6.41500 128.0
6.42500 149.0
6.43500 153.0
6.44500 205.0
6.45500 210.0
6.46500 202.0
6.47500 152.0
6.48500 190.0
6.49500 143.0
6.50500 157.0
6.51500 208.0
6.52500 177.0
6.53500 170.0
6.54500 180.0
6.55500 148.0
6.56500 140.0
6.57500 137.0
6.58500 113.0
6.59500 161.0
6.60500 177.0
6.61500 177.0
6.62500 155.0
6.63500 215.0
6.64500 241.0
6.65500 206.0
6.66500 159.0
6.67500 177.0
6.68500 171.0
6.69500 161.0
6.70500 136.0
6.71500 166.0
6.72500 204.0
6.73500 178.0
6.74500 223.0
6.75500 164.0
6.76500 130.0
6.77500 127.0
6.78500 178.0
6.79500 166.0
6.80500 172.0
6.81500 165.0
6.82500 158.0
6.83500 248.0
6.84500 150.0
6.85500 187.0
6.86500 157.0
6.87500 134.0
6.88500 114.0
6.89500 99.0
6.90500 83.0
6.91500 122.0
6.92500 145.0
6.93500 153.0
6.94500 153.0
6.95500 150.0
6.96500 264.0
6.97500 177.0
6.98500 160.0
6.99500 143.0
7.00500 229.0
7.01500 240.0
7.02500 167.0
7.03500 161.0
7.04500 119.0
7.05500 148.0
7.06500 110.0
7.07500 110.0
7.08500 130.0
7.09500 161.0
7.10500 93.0
7.11500 120.0
7.12500 135.0
7.13500 132.0
7.14500 154.0
7.15500 163.0
7.16500 188.0
7.17500 207.0
7.18500 205.0
7.19500 208.0
7.20500 189.0
7.21500 174.0
7.22500 164.0
7.23500 208.0
7.24500 202.0
7.25500 195.0
7.26500 227.0
7.27500 190.0
7.28500 173.0
7.29500 186.0
7.30500 186.0
7.31500 159.0
7.32500 166.0
7.33500 155.0
7.34500 166.0
7.35500 210.0
7.36500 156.0
7.37500 139.0
7.38500 153.0
7.39500 152.0
7.40500 170.0
7.41500 202.0
7.42500 152.0
7.43500 141.0
7.44500 124.0
7.45500 136.0
7.46500 184.0
7.47500 154.0
7.48500 173.0
7.49500 154.0
7.50500 216.0
7.51500 194.0
7.52500 224.0
7.53500 234.0
7.54500 251.0
7.55500 176.0
7.56500 381.0
7.57500 351.0
7.58500 364.0
7.59500 282.0
7.60500 301.0
7.61500 260.0
7.62500 332.0
7.63500 185.0
7.64500 193.0
7.65500 131.0
7.66500 144.0
7.67500 224.0
7.68500 207.0
7.69500 159.0
7.70500 155.0
7.71500 141.0
7.72500 194.0
7.73500 181.0
7.74500 156.0
7.75500 190.0
7.76500 185.0
7.77500 167.0
7.78500 182.0
7.79500 154.0
7.80500 139.0
7.81500 180.0
7.82500 150.0
7.83500 151.0
7.84500 149.0
7.85500 164.0
7.86500 125.0
7.87500 120.0
7.88500 123.0
7.89500 113.0
7.90500 83.0
7.91500 137.0
7.92500 137.0
7.93500 191.0
7.94500 183.0
7.95500 146.0
7.96500 206.0
7.97500 173.0
7.98500 234.0
7.99500 231.0
8.00500 250.0
8.01500 274.0
8.02500 227.0
8.03500 140.0
8.04500 289.0
8.05500 239.0
8.06500 203.0
8.07500 150.0
8.08500 183.0
8.09500 140.0
8.10500 104.0
8.11500 179.0
8.12500 159.0
8.13500 169.0
8.14500 226.0
8.15500 171.0
8.16500 187.0
8.17500 162.0
8.18500 173.0
8.19500 167.0
8.20500 119.0
8.21500 185.0
8.22500 172.0
8.23500 162.0
8.24500 105.0
8.25500 106.0
8.26500 148.0
8.27500 200.0
8.28500 217.0
8.29500 281.0
8.30500 288.0
8.31500 206.0
8.32500 126.0
8.33500 201.0
8.34500 159.0
8.35500 252.0
8.36500 289.0
8.37500 261.0
8.38500 245.0
8.39500 180.0
8.40500 177.0
8.41500 205.0
8.42500 196.0
8.43500 185.0
8.44500 166.0
8.45500 183.0
8.46500 194.0
8.47500 202.0
8.48500 169.0
8.49500 194.0
8.50500 126.0
8.51500 124.0
8.52500 106.0
8.53500 110.0
8.54500 135.0
8.55500 92.0
8.56500 105.0
8.57500 142.0
8.58500 132.0
8.59500 132.0
8.60500 91.0
8.61500 126.0
8.62500 117.0
8.63500 126.0
8.64500 147.0
8.65500 134.0
8.66500 166.0
8.67500 181.0
8.68500 174.0
8.69500 135.0
8.70500 141.0
8.71500 110.0
8.72500 124.0
8.73500 125.0
8.74500 123.0
8.75500 110.0
8.76500 103.0
8.77500 159.0
8.78500 146.0
8.79500 155.0
8.80500 153.0
8.81500 128.0
8.82500 132.0
8.83500 108.0
8.84500 96.0
8.85500 97.0
8.86500 157.0
8.87500 156.0
8.88500 134.0
8.89500 121.0
8.90500 152.0
8.91500 134.0
8.92500 153.0
8.93500 151.0
8.94500 149.0
8.95500 141.0
8.96500 152.0
8.97500 133.0
8.98500 127.0
8.99500 208.0
9.00500 167.0
9.01500 177.0
9.02500 192.0
9.03500 181.0
9.04500 201.0
9.05500 218.0
9.06500 186.0
9.07500 257.0
9.08500 268.0
9.09500 271.0
9.10500 420.0
9.11500 403.0
9.12500 279.0
9.13500 222.0
9.14500 232.0
9.15500 252.0
9.16500 271.0
9.17500 238.0
9.18500 238.0
9.19500 177.0
9.20500 207.0
9.21500 168.0
9.22500 190.0
9.23500 222.0
9.24500 220.0
9.25500 206.0
9.26500 195.0
9.27500 212.0
9.28500 213.0
9.29500 216.0
9.30500 133.0
9.31500 176.0
9.32500 200.0
9.33500 263.0
9.34500 252.0
9.35500 282.0
9.36500 267.0
9.37500 185.0
9.38500 248.0
9.39500 363.0
9.40500 300.0
9.41500 264.0
9.42500 262.0
9.43500 195.0
9.44500 231.0
9.45500 343.0
9.46500 325.0
9.47500 336.0
9.48500 512.0
9.49500 443.0
9.50500 337.0
9.51500 292.0
9.52500 230.0
9.53500 282.0
9.54500 175.0
9.55500 210.0
9.56500 242.0
9.57500 247.0
9.58500 272.0
9.59500 285.0
9.60500 283.0
9.61500 291.0
9.62500 282.0
9.63500 330.0
9.64500 200.0
9.65500 246.0
9.66500 263.0
9.67500 168.0
9.68500 199.0
9.69500 203.0
9.70500 186.0
9.71500 154.0
9.72500 256.0
9.73500 208.0
9.74500 163.0
