0.00500 32946498.0
0.01500 36884968.0
0.02500 32363648.0
0.03500 25419276.0
0.04500 17191012.0
0.05500 10254326.0
0.06500 6744590.0
0.07500 5928233.0
0.08500 6394397.0
0.09500 7096294.0
0.10500 7929950.0
0.11500 8661994.0
0.12500 9352382.0
0.13500 10116397.0
0.14500 10791775.0
0.15500 11600170.0
0.16500 12274989.0
0.17500 12963226.0
0.18500 13640963.0
0.19500 14325872.0
0.20500 14958585.0
0.21500 15581557.0
0.22500 16197879.0
0.23500 16997472.0
0.24500 17629318.0
0.25500 18202024.0
0.26500 18845430.0
0.27500 19489548.0
0.28500 20104344.0
0.29500 20822160.0
0.30500 21345584.0
0.31500 21776892.0
0.32500 22269796.0
0.33500 22752426.0
0.34500 23240360.0
0.35500 23612000.0
0.36500 24016954.0
0.37500 24429576.0
0.38500 24943816.0
0.39500 25374360.0
0.40500 25695236.0
0.41500 26018536.0
0.42500 26508956.0
0.43500 26709956.0
0.44500 27060088.0
0.45500 27209260.0
0.46500 27737520.0
0.47500 28066612.0
0.48500 28380832.0
0.49500 28733868.0
0.50500 28918100.0
0.51500 29078232.0
0.52500 29274272.0
0.53500 29491428.0
0.54500 29868912.0
0.55500 30031148.0
0.56500 30085332.0
0.57500 30111292.0
0.58500 30270320.0
0.59500 30249872.0
0.60500 30160362.0
0.61500 30116270.0
0.62500 30001440.0
0.63500 30003860.0
0.64500 29779390.0
0.65500 29456062.0
0.66500 28948814.0
0.67500 28015392.0
0.68500 26776204.0
0.69500 24647672.0
0.70500 22029600.0
0.71500 18878412.0
0.72500 15965838.0
0.73500 13445115.0
0.74500 11524555.0
0.75500 10001739.0
0.76500 8786794.0
0.77500 7770046.0
0.78500 7000872.0
0.79500 6269789.0
0.80500 5684497.0
0.81500 5194114.0
0.82500 4765212.0
0.83500 4377670.0
0.84500 4025834.0
0.85500 3721626.0
0.86500 3464792.0
0.87500 3227895.0
0.88500 2988431.0
0.89500 2769449.0
0.90500 2602778.0
0.91500 2429855.0
0.92500 2300375.0
0.93500 2171333.0
0.94500 2039653.0
0.95500 1912189.0
0.96500 1806096.0
0.97500 1706790.0
0.98500 1606684.0
0.99500 1517881.0
1.00500 1456195.0
1.01500 1374876.0
1.02500 1300082.0
1.03500 1245903.0
1.04500 1187049.0
1.05500 1114360.0
1.06500 1069039.0
1.07500 1027037.0
1.08500 967420.0
1.09500 927202.0
1.10500 905596.0
1.11500 854787.0
1.12500 810220.0
1.13500 796219.0
1.14500 761778.0
1.15500 712895.0
1.16500 695815.0
1.17500 677710.0
1.18500 635632.0
1.19500 598705.0
1.20500 593168.0
1.21500 563473.0
1.22500 521833.0
1.23500 509089.0
1.24500 506838.0
1.25500 480727.0
1.26500 454472.0
1.27500 452730.0
1.28500 442617.0
1.29500 409046.0
1.30500 396573.0
1.31500 398506.0
1.32500 379011.0
1.33500 354520.0
1.34500 346757.0
1.35500 348185.0
1.36500 324309.0
1.37500 301253.0
1.38500 306898.0
1.39500 304203.0
1.40500 283832.0
1.41500 274365.0
1.42500 281079.0
1.43500 271843.0
1.44500 252699.0
1.45500 243701.0
1.46500 250206.0
1.47500 239170.0
1.48500 221262.0
1.49500 219228.0
1.50500 223873.0
1.51500 211247.0
1.52500 195249.0
1.53500 198612.0
1.54500 198874.0
1.55500 187461.0
1.56500 175247.0
1.57500 177621.0
1.58500 180106.0
1.59500 167395.0
1.60500 159164.0
1.61500 163747.0
1.62500 162280.0
1.63500 149094.0
1.64500 143362.0
1.65500 146951.0
1.66500 146677.0
1.67500 135452.0
1.68500 130801.0
1.69500 136638.0
1.70500 136362.0
1.71500 126655.0
1.72500 121215.0
1.73500 125542.0
1.74500 126358.0
1.75500 115720.0
1.76500 112265.0
1.77500 117521.0
1.78500 118311.0
1.79500 109955.0
1.80500 105754.0
1.81500 109763.0
1.82500 108994.0
1.83500 100415.0
1.84500 97853.0
1.85500 103529.0
1.86500 103162.0
1.87500 97255.0
1.88500 94443.0
1.89500 98610.0
1.90500 99362.0
1.91500 91350.0
1.92500 89223.0
1.93500 93040.0
1.94500 95089.0
1.95500 89687.0
1.96500 88212.0
1.97500 94509.0
1.98500 96915.0
1.99500 90750.0
2.00500 86509.0
2.01500 90147.0
2.02500 94487.0
2.03500 91632.0
2.04500 90761.0
2.05500 97639.0
2.06500 103435.0
2.07500 101430.0
2.08500 97810.0
2.09500 103393.0
2.10500 111215.0
2.11500 112146.0
2.12500 111843.0
2.13500 121224.0
2.14500 133072.0
2.15500 135993.0
2.16500 139713.0
2.17500 156653.0
2.18500 183946.0
2.19500 208088.0
2.20500 234227.0
2.21500 277812.0
2.22500 322533.0
2.23500 399799.0
2.24500 631741.0
2.25500 1256408.0
2.26500 2313364.0
2.27500 3429187.0
2.28500 4287124.0
2.29500 4346273.0
2.30500 3700014.0
2.31500 2639428.0
2.32500 1716597.0
2.33500 1076621.0
2.34500 719338.0
2.35500 519119.0
2.36500 376978.0
2.37500 285090.0
2.38500 223412.0
2.39500 185550.0
2.40500 155886.0
2.41500 129732.0
2.42500 111611.0
2.43500 95592.0
2.44500 81345.0
2.45500 67948.0
2.46500 55107.0
2.47500 47090.0
2.48500 39064.0
2.49500 32233.0
2.50500 27517.0
2.51500 23543.0
2.52500 20482.0
2.53500 17562.0
2.54500 15488.0
2.55500 14347.0
2.56500 12611.0
2.57500 11151.0
2.58500 10578.0
2.59500 9507.0
2.60500 8993.0
2.61500 8056.0
2.62500 7366.0
2.63500 7262.0
2.64500 6664.0
2.65500 6102.0
2.66500 5938.0
2.67500 5638.0
2.68500 5401.0
2.69500 5128.0
2.70500 4885.0
2.71500 4838.0
2.72500 4398.0
2.73500 4121.0
2.74500 4107.0
2.75500 4148.0
2.76500 4021.0
2.77500 3825.0
2.78500 3778.0
2.79500 3344.0
2.80500 3254.0
2.81500 3161.0
2.82500 2991.0
2.83500 2995.0
2.84500 2949.0
2.85500 2827.0
2.86500 2581.0
2.87500 2571.0
2.88500 2547.0
2.89500 2418.0
2.90500 2316.0
2.91500 2268.0
2.92500 2160.0
2.93500 2157.0
2.94500 2080.0
2.95500 2108.0
2.96500 2164.0
2.97500 2062.0
2.98500 1877.0
2.99500 1797.0
3.00500 1846.0
3.01500 1676.0
3.02500 1747.0
3.03500 1692.0
3.04500 1826.0
3.05500 1692.0
3.06500 1581.0
3.07500 1619.0
3.08500 1576.0
3.09500 1652.0
3.10500 1656.0
3.11500 1590.0
3.12500 1656.0
3.13500 1560.0
3.14500 1539.0
3.15500 1537.0
3.16500 1404.0
3.17500 1459.0
3.18500 1438.0
3.19500 1415.0
3.20500 1553.0
3.21500 1390.0
3.22500 1277.0
3.23500 1384.0
3.24500 1327.0
3.25500 1257.0
3.26500 1162.0
3.27500 1041.0
3.28500 1075.0
3.29500 1017.0
3.30500 1176.0
3.31500 1230.0
3.32500 1145.0
3.33500 1110.0
3.34500 973.0
3.35500 1029.0
3.36500 1062.0
3.37500 1012.0
3.38500 1041.0
3.39500 1059.0
3.40500 1179.0
3.41500 1042.0
3.42500 986.0
3.43500 1013.0
3.44500 900.0
3.45500 946.0
3.46500 971.0
3.47500 794.0
3.48500 754.0
3.49500 772.0
3.50500 848.0
3.51500 828.0
3.52500 827.0
3.53500 768.0
3.54500 636.0
3.55500 618.0
3.56500 638.0
3.57500 680.0
3.58500 694.0
3.59500 681.0
3.60500 807.0
3.61500 678.0
3.62500 541.0
3.63500 585.0
3.64500 699.0
3.65500 529.0
3.66500 614.0
3.67500 561.0
3.68500 659.0
3.69500 708.0
3.70500 728.0
3.71500 693.0
3.72500 695.0
3.73500 621.0
3.74500 600.0
3.75500 495.0
3.76500 485.0
3.77500 424.0
3.78500 438.0
3.79500 543.0
3.80500 473.0
3.81500 529.0
3.82500 523.0
3.83500 367.0
3.84500 403.0
3.85500 359.0
3.86500 400.0
3.87500 342.0
3.88500 365.0
3.89500 340.0
3.90500 362.0
3.91500 375.0
3.92500 381.0
3.93500 347.0
3.94500 330.0
3.95500 372.0
3.96500 431.0
3.97500 431.0
3.98500 495.0
3.99500 494.0
4.00500 484.0
4.01500 473.0
4.02500 458.0
4.03500 396.0
4.04500 376.0
4.05500 379.0
4.06500 447.0
4.07500 391.0
4.08500 305.0
4.09500 340.0
4.10500 387.0
4.11500 240.0
4.12500 281.0
4.13500 304.0
4.14500 286.0
4.15500 358.0
4.16500 336.0
4.17500 275.0
4.18500 310.0
4.19500 311.0
4.20500 281.0
4.21500 315.0
4.22500 366.0
4.23500 444.0
4.24500 480.0
4.25500 515.0
4.26500 471.0
4.27500 516.0
4.28500 591.0
4.29500 692.0
4.30500 747.0
4.31500 856.0
4.32500 1144.0
4.33500 1360.0
4.34500 1522.0
4.35500 1892.0
4.36500 2860.0
4.37500 5053.0
4.38500 8128.0
4.39500 12043.0
4.40500 15870.0
4.41500 18130.0
4.42500 18763.0
4.43500 17382.0
4.44500 15130.0
4.45500 12511.0
4.46500 10192.0
4.47500 8047.0
4.48500 6582.0
4.49500 5234.0
4.50500 4375.0
4.51500 3744.0
4.52500 3285.0
4.53500 2943.0
4.54500 2602.0
4.55500 2401.0
4.56500 2188.0
4.57500 2015.0
4.58500 1966.0
4.59500 1826.0
4.60500 1778.0
4.61500 1630.0
4.62500 1628.0
4.63500 1522.0
4.64500 1385.0
4.65500 1231.0
4.66500 1202.0
4.67500 1221.0
4.68500 1161.0
4.69500 968.0
4.70500 993.0
4.71500 948.0
4.72500 879.0
4.73500 951.0
4.74500 834.0
4.75500 799.0
4.76500 719.0
4.77500 629.0
4.78500 609.0
4.79500 583.0
4.80500 592.0
4.81500 631.0
4.82500 612.0
4.83500 651.0
4.84500 723.0
4.85500 701.0
4.86500 577.0
4.87500 616.0
4.88500 509.0
4.89500 522.0
4.90500 496.0
4.91500 569.0
4.92500 510.0
4.93500 490.0
4.94500 463.0
4.95500 426.0
4.96500 411.0
4.97500 447.0
4.98500 492.0
4.99500 524.0
5.00500 494.0
5.01500 492.0
5.02500 531.0
5.03500 470.0
5.04500 501.0
5.05500 566.0
5.06500 611.0
5.07500 580.0
5.08500 546.0
5.09500 468.0
5.10500 401.0
5.11500 388.0
5.12500 453.0
5.13500 451.0
5.14500 444.0
5.15500 388.0
5.16500 384.0
5.17500 459.0
5.18500 445.0
5.19500 488.0
5.20500 556.0
5.21500 562.0
5.22500 439.0
5.23500 408.0
5.24500 530.0
5.25500 523.0
5.26500 557.0
5.27500 699.0
5.28500 660.0
5.29500 495.0
5.30500 528.0
5.31500 670.0
5.32500 684.0
5.33500 572.0
5.34500 499.0
5.35500 543.0
5.36500 533.0
5.37500 541.0
5.38500 460.0
5.39500 503.0
5.40500 513.0
5.41500 593.0
5.42500 614.0
5.43500 433.0
5.44500 526.0
5.45500 546.0
5.46500 374.0
5.47500 369.0
5.48500 333.0
5.49500 414.0
5.50500 428.0
5.51500 549.0
5.52500 616.0
5.53500 631.0
5.54500 456.0
5.55500 452.0
5.56500 383.0
5.57500 438.0
5.58500 378.0
5.59500 352.0
5.60500 457.0
5.61500 499.0
5.62500 418.0
5.63500 411.0
5.64500 400.0
5.65500 331.0
5.66500 404.0
5.67500 491.0
5.68500 341.0
5.69500 339.0
5.70500 411.0
5.71500 383.0
5.72500 493.0
5.73500 521.0
5.74500 382.0
5.75500 313.0
5.76500 338.0
5.77500 360.0
5.78500 352.0
5.79500 418.0
5.80500 353.0
5.81500 373.0
5.82500 338.0
5.83500 372.0
5.84500 356.0
5.85500 395.0
5.86500 335.0
5.87500 354.0
5.88500 317.0
5.89500 241.0
5.90500 240.0
5.91500 236.0
5.92500 215.0
5.93500 297.0
5.94500 365.0
5.95500 424.0
5.96500 422.0
5.97500 412.0
5.98500 421.0
5.99500 411.0
6.00500 325.0
6.01500 239.0
6.02500 214.0
6.03500 279.0
6.04500 224.0
6.05500 258.0
6.06500 211.0
6.07500 247.0
6.08500 218.0
6.09500 233.0
6.10500 321.0
6.11500 323.0
6.12500 259.0
6.13500 240.0
6.14500 239.0
6.15500 292.0
6.16500 312.0
6.17500 243.0
6.18500 245.0
6.19500 295.0
6.20500 354.0
6.21500 361.0
6.22500 304.0
6.23500 366.0
6.24500 366.0
6.25500 362.0
6.26500 252.0
6.27500 273.0
6.28500 272.0
6.29500 272.0
6.30500 334.0
6.31500 347.0
6.32500 451.0
6.33500 419.0
6.34500 387.0
6.35500 417.0
6.36500 481.0
6.37500 404.0
6.38500 468.0
6.39500 476.0
6.40500 382.0
6.41500 455.0
6.42500 484.0
6.43500 405.0
6.44500 359.0
6.45500 413.0
6.46500 449.0
6.47500 368.0
6.48500 304.0
6.49500 342.0
6.50500 339.0
6.51500 341.0
6.52500 451.0
6.53500 569.0
6.54500 501.0
6.55500 490.0
6.56500 396.0
6.57500 479.0
6.58500 564.0
6.59500 529.0
6.60500 562.0
6.61500 473.0
6.62500 472.0
6.63500 506.0
6.64500 625.0
6.65500 531.0
6.66500 456.0
6.67500 387.0
6.68500 432.0
6.69500 451.0
6.70500 373.0
6.71500 477.0
6.72500 398.0
6.73500 355.0
6.74500 423.0
6.75500 390.0
6.76500 461.0
6.77500 459.0
6.78500 367.0
6.79500 398.0
6.80500 402.0
6.81500 530.0
6.82500 503.0
6.83500 413.0
6.84500 415.0
6.85500 347.0
6.86500 296.0
6.87500 310.0
6.88500 397.0
6.89500 368.0
6.90500 362.0
6.91500 214.0
6.92500 204.0
6.93500 225.0
6.94500 210.0
6.95500 244.0
6.96500 230.0
6.97500 220.0
6.98500 205.0
6.99500 182.0
7.00500 136.0
7.01500 171.0
7.02500 134.0
7.03500 180.0
7.04500 207.0
7.05500 141.0
7.06500 229.0
7.07500 274.0
7.08500 301.0
7.09500 299.0
7.10500 278.0
7.11500 300.0
7.12500 336.0
7.13500 279.0
7.14500 263.0
7.15500 268.0
7.16500 289.0
7.17500 276.0
7.18500 342.0
7.19500 464.0
7.20500 347.0
7.21500 395.0
7.22500 284.0
7.23500 262.0
7.24500 324.0
7.25500 296.0
7.26500 289.0
7.27500 305.0
7.28500 283.0
7.29500 213.0
7.30500 240.0
7.31500 230.0
7.32500 189.0
7.33500 208.0
7.34500 219.0
7.35500 239.0
7.36500 275.0
7.37500 228.0
7.38500 277.0
7.39500 197.0
7.40500 244.0
7.41500 211.0
7.42500 184.0
7.43500 205.0
7.44500 256.0
7.45500 188.0
7.46500 141.0
7.47500 147.0
7.48500 132.0
7.49500 192.0
7.50500 230.0
7.51500 226.0
7.52500 222.0
7.53500 205.0
7.54500 177.0
7.55500 200.0
7.56500 288.0
7.57500 252.0
7.58500 308.0
7.59500 297.0
7.60500 324.0
7.61500 314.0
7.62500 351.0
7.63500 306.0
7.64500 318.0
7.65500 502.0
7.66500 494.0
7.67500 492.0
7.68500 334.0
7.69500 383.0
7.70500 289.0
7.71500 287.0
7.72500 269.0
7.73500 208.0
7.74500 208.0
7.75500 261.0
7.76500 319.0
7.77500 339.0
7.78500 407.0
7.79500 320.0
7.80500 309.0
7.81500 272.0
7.82500 280.0
7.83500 228.0
7.84500 221.0
7.85500 315.0
7.86500 289.0
7.87500 324.0
7.88500 306.0
7.89500 257.0
7.90500 228.0
7.91500 185.0
7.92500 242.0
7.93500 244.0
7.94500 225.0
7.95500 236.0
7.96500 265.0
7.97500 249.0
7.98500 279.0
7.99500 334.0
