0.00500 39977444.0
0.01500 44693800.0
0.02500 36061728.0
0.03500 23568334.0
0.04500 13777952.0
0.05500 8527726.0
0.06500 6789703.0
0.07500 6963706.0
0.08500 7741261.0
0.09500 8582453.0
0.10500 9437546.0
0.11500 10261337.0
0.12500 11059028.0
0.13500 11820580.0
0.14500 12625257.0
0.15500 13465264.0
0.16500 14147918.0
0.17500 14871134.0
0.18500 15598204.0
0.19500 16301810.0
0.20500 16910156.0
0.21500 17568550.0
0.22500 18267080.0
0.23500 18974084.0
0.24500 19480156.0
0.25500 20095804.0
0.26500 20733684.0
0.27500 21333242.0
0.28500 21903964.0
0.29500 22425610.0
0.30500 22926352.0
0.31500 23378028.0
0.32500 23770728.0
0.33500 24074904.0
0.34500 24551280.0
0.35500 25046844.0
0.36500 25544920.0
0.37500 26011690.0
0.38500 26400836.0
0.39500 26735610.0
0.40500 27045862.0
0.41500 27380820.0
0.42500 27951540.0
0.43500 28209588.0
0.44500 28471254.0
0.45500 28902340.0
0.46500 29021536.0
0.47500 29302706.0
0.48500 29620544.0
0.49500 29855452.0
0.50500 30053508.0
0.51500 30232682.0
0.52500 30300068.0
0.53500 30373720.0
0.54500 30384476.0
0.55500 30592290.0
0.56500 30834344.0
0.57500 31035788.0
0.58500 31032006.0
0.59500 30951488.0
0.60500 30781310.0
0.61500 30370368.0
0.62500 30230464.0
0.63500 29832354.0
0.64500 29089292.0
0.65500 28052084.0
0.66500 26375394.0
0.67500 24061276.0
0.68500 21020098.0
0.69500 17754108.0
0.70500 14742557.0
0.71500 12266034.0
0.72500 10446014.0
0.73500 9011629.0
0.74500 7842591.0
0.75500 6904248.0
0.76500 6125133.0
0.77500 5491690.0
0.78500 4945065.0
0.79500 4459765.0
0.80500 4042731.0
0.81500 3674090.0
0.82500 3366087.0
0.83500 3078669.0
0.84500 2797443.0
0.85500 2571536.0
0.86500 2372451.0
0.87500 2209953.0
0.88500 2065228.0
0.89500 1910447.0
0.90500 1783589.0
0.91500 1676022.0
0.92500 1560213.0
0.93500 1460007.0
0.94500 1364901.0
0.95500 1264192.0
0.96500 1199801.0
0.97500 1136757.0
0.98500 1071048.0
0.99500 1008899.0
1.00500 955802.0
1.01500 899303.0
1.02500 855453.0
1.03500 812485.0
1.04500 765535.0
1.05500 732501.0
1.06500 689060.0
1.07500 657321.0
1.08500 622774.0
1.09500 590930.0
1.10500 561739.0
1.11500 529372.0
1.12500 500793.0
1.13500 477252.0
1.14500 449079.0
1.15500 433104.0
1.16500 410420.0
1.17500 390872.0
1.18500 373867.0
1.19500 354122.0
1.20500 338209.0
1.21500 326707.0
1.22500 311864.0
1.23500 297312.0
1.24500 288994.0
1.25500 275484.0
1.26500 269264.0
1.27500 264713.0
1.28500 256058.0
1.29500 248148.0
1.30500 239529.0
1.31500 227194.0
1.32500 219244.0
1.33500 216386.0
1.34500 207205.0
1.35500 202143.0
1.36500 194643.0
1.37500 183067.0
1.38500 180344.0
1.39500 180940.0
1.40500 177166.0
1.41500 176034.0
1.42500 175891.0
1.43500 169107.0
1.44500 163950.0
1.45500 159871.0
1.46500 149810.0
1.47500 144854.0
1.48500 146260.0
1.49500 142185.0
1.50500 139233.0
1.51500 139764.0
1.52500 135523.0
1.53500 134596.0
1.54500 136737.0
1.55500 130498.0
1.56500 122036.0
1.57500 119394.0
1.58500 119075.0
1.59500 121221.0
1.60500 130252.0
1.61500 135107.0
1.62500 132406.0
1.63500 136878.0
1.64500 141184.0
1.65500 142305.0
1.66500 152192.0
1.67500 165486.0
1.68500 172482.0
1.69500 184838.0
1.70500 197247.0
1.71500 201262.0
1.72500 213662.0
1.73500 234969.0
1.74500 252245.0
1.75500 273870.0
1.76500 317447.0
1.77500 370310.0
1.78500 437923.0
1.79500 558633.0
1.80500 715980.0
1.81500 980419.0
1.82500 1462044.0
1.83500 2276366.0
1.84500 3980367.0
1.85500 6915873.0
1.86500 10599427.0
1.87500 13422878.0
1.88500 13319789.0
1.89500 10371945.0
1.90500 6257824.0
1.91500 3028098.0
1.92500 1589751.0
1.93500 1154009.0
1.94500 812740.0
1.95500 582736.0
1.96500 488168.0
1.97500 395119.0
1.98500 312878.0
1.99500 272179.0
2.00500 237938.0
2.01500 192751.0
2.02500 168230.0
2.03500 152994.0
2.04500 128864.0
2.05500 111944.0
2.06500 104492.0
2.07500 93131.0
2.08500 83290.0
2.09500 79774.0
2.10500 73096.0
2.11500 63290.0
2.12500 60683.0
2.13500 57146.0
2.14500 51242.0
2.15500 47076.0
2.16500 45883.0
2.17500 40167.0
2.18500 35519.0
2.19500 33827.0
2.20500 31627.0
2.21500 28974.0
2.22500 28437.0
2.23500 28120.0
2.24500 25709.0
2.25500 24436.0
2.26500 24334.0
2.27500 22961.0
2.28500 21508.0
2.29500 22209.0
2.30500 21155.0
2.31500 18867.0
2.32500 19164.0
2.33500 19094.0
2.34500 17998.0
2.35500 17910.0
2.36500 18420.0
2.37500 17343.0
2.38500 15854.0
2.39500 16296.0
2.40500 15778.0
2.41500 14291.0
2.42500 14299.0
2.43500 14905.0
2.44500 13841.0
2.45500 13275.0
2.46500 13525.0
2.47500 12964.0
2.48500 12014.0
2.49500 12739.0
2.50500 12476.0
2.51500 11900.0
2.52500 11933.0
2.53500 12078.0
2.54500 11336.0
2.55500 10653.0
2.56500 11047.0
2.57500 10505.0
2.58500 9409.0
2.59500 9651.0
2.60500 9432.0
2.61500 8713.0
2.62500 8637.0
2.63500 8856.0
2.64500 8681.0
2.65500 8476.0
2.66500 8787.0
2.67500 8511.0
2.68500 7819.0
2.69500 8023.0
2.70500 7978.0
2.71500 7568.0
2.72500 7701.0
2.73500 8036.0
2.74500 7634.0
2.75500 7234.0
2.76500 7303.0
2.77500 7388.0
2.78500 6754.0
2.79500 6841.0
2.80500 7009.0
2.81500 6566.0
2.82500 6362.0
2.83500 6809.0
2.84500 6715.0
2.85500 6346.0
2.86500 6465.0
2.87500 6871.0
2.88500 6325.0
2.89500 6079.0
2.90500 6292.0
2.91500 5798.0
2.92500 5100.0
2.93500 5338.0
2.94500 5409.0
2.95500 5345.0
2.96500 5615.0
2.97500 6045.0
2.98500 5446.0
2.99500 5247.0
3.00500 5284.0
3.01500 5232.0
3.02500 4774.0
3.03500 5153.0
3.04500 4976.0
3.05500 4486.0
3.06500 4317.0
3.07500 4461.0
3.08500 4135.0
3.09500 3853.0
3.10500 3864.0
3.11500 3879.0
3.12500 3572.0
3.13500 3825.0
3.14500 4019.0
3.15500 3725.0
3.16500 3516.0
3.17500 3930.0
3.18500 3809.0
3.19500 3568.0
3.20500 3443.0
3.21500 3502.0
3.22500 3300.0
3.23500 3439.0
3.24500 3827.0
3.25500 3872.0
3.26500 3752.0
3.27500 3862.0
3.28500 3719.0
3.29500 3514.0
3.30500 3581.0
3.31500 3936.0
3.32500 3708.0
3.33500 3806.0
3.34500 4127.0
3.35500 3972.0
3.36500 3615.0
3.37500 3598.0
3.38500 3793.0
3.39500 3649.0
3.40500 3689.0
3.41500 3895.0
3.42500 3977.0
3.43500 3851.0
3.44500 4213.0
3.45500 4470.0
3.46500 4566.0
3.47500 5312.0
3.48500 5975.0
3.49500 6629.0
3.50500 8236.0
3.51500 11101.0
3.52500 14710.0
3.53500 21138.0
3.54500 32044.0
3.55500 41956.0
3.56500 42290.0
3.57500 31836.0
3.58500 17531.0
3.59500 8002.0
3.60500 3641.0
3.61500 2160.0
3.62500 1624.0
3.63500 1232.0
3.64500 1017.0
3.65500 927.0
3.66500 900.0
3.67500 854.0
3.68500 867.0
3.69500 897.0
3.70500 839.0
3.71500 768.0
3.72500 830.0
3.73500 748.0
3.74500 788.0
3.75500 714.0
3.76500 765.0
3.77500 747.0
3.78500 787.0
3.79500 826.0
3.80500 855.0
3.81500 747.0
3.82500 750.0
3.83500 797.0
3.84500 690.0
3.85500 787.0
3.86500 839.0
3.87500 739.0
3.88500 799.0
3.89500 705.0
3.90500 773.0
3.91500 774.0
3.92500 790.0
3.93500 676.0
3.94500 690.0
3.95500 598.0
3.96500 657.0
3.97500 583.0
3.98500 591.0
3.99500 632.0
4.00500 643.0
4.01500 548.0
4.02500 545.0
4.03500 520.0
4.04500 564.0
4.05500 492.0
4.06500 473.0
4.07500 474.0
4.08500 496.0
4.09500 518.0
4.10500 610.0
4.11500 534.0
4.12500 457.0
4.13500 458.0
4.14500 503.0
4.15500 469.0
4.16500 519.0
4.17500 511.0
4.18500 463.0
4.19500 445.0
4.20500 413.0
4.21500 361.0
4.22500 388.0
4.23500 450.0
4.24500 404.0
4.25500 395.0
4.26500 349.0
4.27500 388.0
4.28500 357.0
4.29500 358.0
4.30500 403.0
4.31500 374.0
4.32500 394.0
4.33500 357.0
4.34500 378.0
4.35500 379.0
4.36500 412.0
4.37500 415.0
4.38500 450.0
4.39500 404.0
4.40500 307.0
4.41500 337.0
4.42500 321.0
4.43500 299.0
4.44500 283.0
4.45500 307.0
4.46500 260.0
4.47500 286.0
4.48500 259.0
4.49500 278.0
4.50500 301.0
4.51500 295.0
4.52500 311.0
4.53500 280.0
4.54500 297.0
4.55500 242.0
4.56500 272.0
4.57500 307.0
4.58500 296.0
4.59500 244.0
4.60500 259.0
4.61500 281.0
4.62500 257.0
4.63500 201.0
4.64500 212.0
4.65500 202.0
4.66500 203.0
4.67500 246.0
4.68500 245.0
4.69500 199.0
4.70500 208.0
4.71500 236.0
4.72500 227.0
4.73500 207.0
4.74500 251.0
4.75500 263.0
4.76500 228.0
4.77500 233.0
4.78500 274.0
4.79500 258.0
4.80500 250.0
4.81500 258.0
4.82500 258.0
4.83500 239.0
4.84500 247.0
4.85500 232.0
4.86500 207.0
4.87500 182.0
4.88500 200.0
4.89500 140.0
4.90500 184.0
4.91500 189.0
4.92500 204.0
4.93500 259.0
4.94500 227.0
4.95500 260.0
4.96500 152.0
4.97500 169.0
4.98500 174.0
4.99500 235.0
5.00500 158.0
5.01500 174.0
5.02500 164.0
5.03500 189.0
5.04500 180.0
5.05500 145.0
5.06500 185.0
5.07500 205.0
5.08500 185.0
5.09500 193.0
5.10500 208.0
5.11500 175.0
5.12500 180.0
5.13500 174.0
5.14500 150.0
5.15500 167.0
5.16500 189.0
5.17500 194.0
5.18500 239.0
5.19500 253.0
5.20500 278.0
5.21500 352.0
5.22500 378.0
5.23500 621.0
5.24500 817.0
5.25500 1228.0
5.26500 2103.0
5.27500 3283.0
5.28500 4374.0
5.29500 4780.0
5.30500 4064.0
5.31500 2712.0
5.32500 1588.0
5.33500 972.0
5.34500 560.0
5.35500 472.0
5.36500 354.0
5.37500 235.0
5.38500 225.0
5.39500 247.0
5.40500 188.0
5.41500 163.0
5.42500 162.0
5.43500 200.0
5.44500 162.0
5.45500 140.0
5.46500 139.0
5.47500 105.0
5.48500 116.0
5.49500 133.0
5.50500 113.0
5.51500 113.0
5.52500 134.0
5.53500 131.0
5.54500 132.0
5.55500 133.0
5.56500 135.0
5.57500 120.0
5.58500 125.0
5.59500 119.0
5.60500 109.0
5.61500 115.0
5.62500 131.0
5.63500 133.0
5.64500 138.0
5.65500 125.0
5.66500 126.0
5.67500 128.0
5.68500 144.0
5.69500 141.0
5.70500 116.0
5.71500 126.0
5.72500 127.0
5.73500 110.0
5.74500 127.0
5.75500 119.0
5.76500 119.0
5.77500 101.0
5.78500 127.0
5.79500 132.0
5.80500 107.0
5.81500 131.0
5.82500 131.0
5.83500 111.0
5.84500 96.0
5.85500 92.0
5.86500 112.0
5.87500 132.0
5.88500 136.0
5.89500 122.0
5.90500 139.0
5.91500 89.0
5.92500 85.0
5.93500 112.0
5.94500 125.0
5.95500 122.0
5.96500 117.0
5.97500 103.0
5.98500 122.0
5.99500 117.0
6.00500 134.0
6.01500 116.0
6.02500 109.0
6.03500 130.0
6.04500 94.0
6.05500 133.0
6.06500 141.0
6.07500 112.0
6.08500 108.0
6.09500 120.0
6.10500 110.0
6.11500 114.0
6.12500 103.0
6.13500 112.0
6.14500 125.0
6.15500 125.0
6.16500 114.0
6.17500 130.0
6.18500 133.0
6.19500 109.0
6.20500 138.0
6.21500 130.0
6.22500 130.0
6.23500 153.0
6.24500 141.0
6.25500 150.0
6.26500 152.0
6.27500 161.0
6.28500 122.0
6.29500 148.0
6.30500 141.0
6.31500 171.0
6.32500 131.0
6.33500 156.0
6.34500 160.0
6.35500 118.0
6.36500 119.0
6.37500 123.0
6.38500 121.0
6.39500 119.0
6.40500 112.0
6.41500 114.0
6.42500 120.0
6.43500 116.0
6.44500 118.0
6.45500 147.0
6.46500 156.0
6.47500 117.0
6.48500 131.0
6.49500 104.0
6.50500 149.0
6.51500 146.0
6.52500 161.0
6.53500 151.0
6.54500 138.0
6.55500 146.0
6.56500 153.0
6.57500 141.0
6.58500 92.0
6.59500 98.0
6.60500 128.0
6.61500 141.0
6.62500 137.0
6.63500 126.0
6.64500 150.0
6.65500 118.0
6.66500 121.0
6.67500 142.0
6.68500 138.0
6.69500 126.0
6.70500 125.0
6.71500 142.0
6.72500 123.0
6.73500 137.0
6.74500 126.0
6.75500 127.0
6.76500 151.0
6.77500 179.0
6.78500 177.0
6.79500 170.0
6.80500 146.0
6.81500 156.0
6.82500 162.0
6.83500 150.0
6.84500 160.0
6.85500 152.0
6.86500 138.0
6.87500 121.0
6.88500 119.0
6.89500 159.0
6.90500 167.0
6.91500 166.0
6.92500 195.0
6.93500 220.0
6.94500 230.0
6.95500 275.0
6.96500 306.0
6.97500 412.0
6.98500 459.0
6.99500 627.0
7.00500 785.0
7.01500 991.0
7.02500 1028.0
7.03500 1005.0
7.04500 790.0
7.05500 689.0
7.06500 576.0
7.07500 428.0
7.08500 331.0
7.09500 276.0
7.10500 222.0
7.11500 183.0
7.12500 159.0
7.13500 135.0
7.14500 156.0
7.15500 115.0
7.16500 131.0
7.17500 117.0
7.18500 124.0
7.19500 111.0
7.20500 109.0
7.21500 130.0
7.22500 109.0
7.23500 98.0
7.24500 121.0
7.25500 120.0
7.26500 105.0
7.27500 112.0
7.28500 110.0
7.29500 121.0
7.30500 89.0
7.31500 101.0
7.32500 90.0
7.33500 92.0
7.34500 84.0
7.35500 82.0
7.36500 78.0
7.37500 99.0
7.38500 97.0
7.39500 96.0
7.40500 124.0
7.41500 97.0
7.42500 103.0
7.43500 112.0
7.44500 100.0
7.45500 95.0
7.46500 81.0
7.47500 115.0
7.48500 81.0
7.49500 88.0
7.50500 84.0
7.51500 86.0
7.52500 95.0
7.53500 120.0
7.54500 130.0
7.55500 102.0
7.56500 133.0
7.57500 101.0
7.58500 56.0
7.59500 95.0
7.60500 88.0
7.61500 114.0
7.62500 153.0
7.63500 90.0
7.64500 99.0
7.65500 96.0
7.66500 82.0
7.67500 79.0
7.68500 95.0
7.69500 101.0
7.70500 72.0
7.71500 113.0
7.72500 93.0
7.73500 78.0
7.74500 95.0
7.75500 88.0
7.76500 109.0
7.77500 116.0
7.78500 100.0
7.79500 112.0
7.80500 110.0
7.81500 93.0
7.82500 137.0
7.83500 119.0
7.84500 110.0
7.85500 100.0
7.86500 89.0
7.87500 105.0
7.88500 85.0
7.89500 102.0
7.90500 116.0
7.91500 80.0
7.92500 93.0
7.93500 98.0
7.94500 100.0
7.95500 113.0
7.96500 114.0
7.97500 81.0
7.98500 85.0
7.99500 64.0
8.00500 81.0
8.01500 95.0
8.02500 108.0
8.03500 117.0
8.04500 141.0
8.05500 105.0
8.06500 138.0
8.07500 127.0
8.08500 101.0
8.09500 77.0
8.10500 95.0
8.11500 102.0
8.12500 118.0
8.13500 132.0
8.14500 111.0
8.15500 119.0
8.16500 107.0
8.17500 112.0
8.18500 125.0
8.19500 93.0
8.20500 60.0
8.21500 90.0
8.22500 96.0
8.23500 123.0
8.24500 113.0
8.25500 128.0
8.26500 92.0
8.27500 93.0
8.28500 103.0
8.29500 91.0
8.30500 117.0
8.31500 133.0
8.32500 110.0
8.33500 79.0
8.34500 81.0
8.35500 65.0
8.36500 79.0
8.37500 67.0
8.38500 84.0
8.39500 92.0
8.40500 101.0
8.41500 76.0
8.42500 106.0
8.43500 96.0
8.44500 75.0
8.45500 57.0
8.46500 80.0
8.47500 65.0
8.48500 68.0
8.49500 66.0
8.50500 75.0
8.51500 84.0
8.52500 85.0
8.53500 76.0
8.54500 85.0
8.55500 106.0
8.56500 62.0
8.57500 80.0
8.58500 97.0
8.59500 121.0
8.60500 109.0
8.61500 96.0
8.62500 93.0
8.63500 87.0
8.64500 75.0
8.65500 88.0
8.66500 75.0
8.67500 107.0
8.68500 137.0
8.69500 118.0
8.70500 120.0
8.71500 85.0
8.72500 100.0
8.73500 128.0
8.74500 131.0
8.75500 198.0
8.76500 270.0
8.77500 238.0
8.78500 275.0
8.79500 303.0
8.80500 200.0
8.81500 130.0
8.82500 128.0
8.83500 81.0
8.84500 83.0
8.85500 98.0
8.86500 92.0
8.87500 87.0
8.88500 103.0
8.89500 95.0
8.90500 87.0
8.91500 93.0
8.92500 112.0
8.93500 72.0
8.94500 94.0
8.95500 106.0
8.96500 104.0
8.97500 93.0
8.98500 91.0
8.99500 103.0
9.00500 104.0
9.01500 82.0
9.02500 87.0
9.03500 77.0
9.04500 90.0
9.05500 72.0
9.06500 98.0
9.07500 94.0
9.08500 64.0
9.09500 69.0
9.10500 86.0
9.11500 49.0
9.12500 54.0
9.13500 68.0
9.14500 53.0
9.15500 78.0
9.16500 69.0
9.17500 86.0
9.18500 49.0
9.19500 72.0
9.20500 72.0
9.21500 67.0
9.22500 99.0
9.23500 107.0
9.24500 107.0
9.25500 95.0
9.26500 107.0
9.27500 97.0
9.28500 111.0
9.29500 93.0
9.30500 82.0
9.31500 90.0
9.32500 87.0
9.33500 73.0
9.34500 82.0
9.35500 84.0
9.36500 65.0
9.37500 73.0
9.38500 63.0
9.39500 74.0
9.40500 84.0
9.41500 92.0
9.42500 78.0
9.43500 65.0
9.44500 87.0
9.45500 86.0
9.46500 73.0
9.47500 86.0
9.48500 70.0
9.49500 55.0
9.50500 55.0
9.51500 77.0
9.52500 90.0
9.53500 78.0
9.54500 81.0
9.55500 82.0
9.56500 85.0
9.57500 72.0
9.58500 95.0
9.59500 89.0
9.60500 87.0
9.61500 104.0
9.62500 111.0
9.63500 96.0
9.64500 64.0
9.65500 45.0
9.66500 49.0
9.67500 66.0
9.68500 57.0
9.69500 60.0
9.70500 51.0
9.71500 62.0
9.72500 50.0
9.73500 56.0
9.74500 51.0
9.75500 54.0
9.76500 54.0
9.77500 58.0
9.78500 57.0
9.79500 53.0
9.80500 65.0
9.81500 64.0
9.82500 55.0
9.83500 56.0
9.84500 57.0
9.85500 70.0
9.86500 65.0
9.87500 62.0
9.88500 56.0
9.89500 56.0
9.90500 42.0
9.91500 48.0
9.92500 63.0
9.93500 39.0
9.94500 45.0
9.95500 40.0
9.96500 50.0
9.97500 43.0
9.98500 46.0
9.99500 41.0
10.00500 41.0
10.01500 48.0
10.02500 50.0
10.03500 54.0
10.04500 71.0
10.05500 50.0
10.06500 58.0
10.07500 70.0
10.08500 82.0
10.09500 88.0
10.10500 61.0
10.11500 68.0
10.12500 56.0
10.13500 65.0
10.14500 59.0
10.15500 74.0
10.16500 91.0
10.17500 82.0
10.18500 87.0
10.19500 80.0
10.20500 81.0
10.21500 46.0
10.22500 72.0
10.23500 58.0
10.24500 77.0
10.25500 72.0
10.26500 46.0
10.27500 48.0
10.28500 46.0
10.29500 66.0
10.30500 63.0
10.31500 77.0
10.32500 53.0
10.33500 71.0
10.34500 62.0
10.35500 42.0
10.36500 56.0
10.37500 40.0
10.38500 61.0
10.39500 68.0
10.40500 66.0
10.41500 57.0
10.42500 62.0
10.43500 70.0
10.44500 75.0
10.45500 71.0
10.46500 63.0
10.47500 95.0
10.48500 70.0
10.49500 81.0
10.50500 71.0
10.51500 76.0
10.52500 72.0
10.53500 68.0
10.54500 1707.0
10.55500 65.0
10.56500 65.0
10.57500 57.0
10.58500 59.0
10.59500 88.0
10.60500 95.0
10.61500 91.0
10.62500 69.0
10.63500 73.0
10.64500 66.0
10.65500 71.0
10.66500 59.0
10.67500 76.0
10.68500 78.0
10.69500 81.0
10.70500 102.0
10.71500 85.0
10.72500 66.0
10.73500 50.0
10.74500 78.0
10.75500 100.0
10.76500 93.0
10.77500 81.0
10.78500 86.0
10.79500 96.0
10.80500 90.0
10.81500 93.0
10.82500 81.0
10.83500 80.0
10.84500 103.0
10.85500 111.0
10.86500 99.0
10.87500 77.0
10.88500 98.0
10.89500 71.0
10.90500 67.0
10.91500 67.0
10.92500 105.0
10.93500 85.0
10.94500 80.0
10.95500 73.0
10.96500 70.0
10.97500 58.0
10.98500 41.0
10.99500 64.0
11.00500 60.0
11.01500 52.0
11.02500 55.0
11.03500 46.0
11.04500 51.0
11.05500 60.0
11.06500 58.0
11.07500 89.0
11.08500 84.0
11.09500 48.0
11.10500 33.0
11.11500 47.0
11.12500 50.0
11.13500 58.0
11.14500 49.0
11.15500 37.0
11.16500 41.0
11.17500 53.0
11.18500 45.0
11.19500 48.0
11.20500 51.0
11.21500 62.0
11.22500 46.0
11.23500 73.0
11.24500 50.0
11.25500 53.0
11.26500 52.0
11.27500 57.0
11.28500 54.0
11.29500 54.0
11.30500 79.0
11.31500 50.0
11.32500 47.0
11.33500 55.0
11.34500 42.0
11.35500 38.0
11.36500 45.0
11.37500 37.0
11.38500 42.0
11.39500 23.0
11.40500 40.0
11.41500 30.0
11.42500 34.0
11.43500 35.0
11.44500 22.0
11.45500 28.0
11.46500 47.0
11.47500 30.0
11.48500 47.0
11.49500 40.0
11.50500 31.0
11.51500 41.0
11.52500 40.0
11.53500 42.0
11.54500 58.0
11.55500 54.0
11.56500 54.0
11.57500 61.0
11.58500 63.0
11.59500 79.0
11.60500 75.0
11.61500 54.0
11.62500 73.0
11.63500 74.0
11.64500 60.0
11.65500 60.0
11.66500 79.0
11.67500 45.0
11.68500 50.0
11.69500 66.0
11.70500 64.0
11.71500 63.0
11.72500 47.0
11.73500 47.0
11.74500 48.0
11.75500 51.0
11.76500 54.0
11.77500 60.0
11.78500 43.0
11.79500 53.0
11.80500 46.0
11.81500 41.0
11.82500 52.0
11.83500 54.0
11.84500 64.0
11.85500 62.0
11.86500 60.0
11.87500 62.0
11.88500 47.0
11.89500 72.0
11.90500 53.0
11.91500 89.0
11.92500 65.0
11.93500 55.0
11.94500 69.0
11.95500 62.0
11.96500 60.0
11.97500 60.0
11.98500 62.0
11.99500 56.0
