0.01000 4157299.0
0.02000 3864853.0
0.03000 3038474.0
0.04000 2153485.0
0.05000 1322016.0
0.06000 764187.0
0.07000 591983.0
0.08000 620399.0
0.09000 692286.0
0.10000 766505.0
0.11000 840354.0
0.12000 916005.0
0.13000 990802.0
0.14000 1074655.0
0.15000 1145859.0
0.16000 1221572.0
0.17000 1296292.0
0.18000 1362354.0
0.19000 1440177.0
0.20000 1504461.0
0.21000 1570263.0
0.22000 1648881.0
0.23000 1708262.0
0.24000 1777125.0
0.25000 1836701.0
0.26000 1901439.0
0.27000 1978514.0
0.28000 2036173.0
0.29000 2101756.0
0.30000 2162565.0
0.31000 2224162.0
0.32000 2290528.0
0.33000 2338207.0
0.34000 2401161.0
0.35000 2474705.0
0.36000 2530554.0
0.37000 2600575.0
0.38000 2636007.0
0.39000 2690762.0
0.40000 2732402.0
0.41000 2769981.0
0.42000 2834396.0
0.43000 2892668.0
0.44000 2930277.0
0.45000 2985821.0
0.46000 3022077.0
0.47000 3065785.0
0.48000 3114401.0
0.49000 3146211.0
0.50000 3207024.0
0.51000 3264224.0
0.52000 3270614.0
0.53000 3322054.0
0.54000 3338437.0
0.55000 3374934.0
0.56000 3393172.0
0.57000 3425319.0
0.58000 3458661.0
0.59000 3480587.0
0.60000 3500174.0
0.61000 3514618.0
0.62000 3529892.0
0.63000 3516012.0
0.64000 3503343.0
0.65000 3522452.0
0.66000 3482431.0
0.67000 3441629.0
0.68000 3362508.0
0.69000 3223718.0
0.70000 3013484.0
0.71000 2713598.0
0.72000 2290137.0
0.73000 1919746.0
0.74000 1577092.0
0.75000 1333829.0
0.76000 1154090.0
0.77000 1009594.0
0.78000 903253.0
0.79000 800837.0
0.80000 721724.0
0.81000 658651.0
0.82000 598499.0
0.83000 546057.0
0.84000 504019.0
0.85000 468750.0
0.86000 430743.0
0.87000 399244.0
0.88000 374116.0
0.89000 351215.0
0.90000 325813.0
0.91000 306373.0
0.92000 291521.0
0.93000 276083.0
0.94000 263131.0
0.95000 248283.0
0.96000 236300.0
0.97000 224208.0
0.98000 212156.0
0.99000 203360.0
1.00000 192333.0
1.01000 183065.0
1.02000 176528.0
1.03000 168483.0
1.04000 161338.0
1.05000 155794.0
1.06000 150523.0
1.07000 145726.0
1.08000 140221.0
1.09000 135535.0
1.10000 130223.0
1.11000 127004.0
1.12000 123170.0
1.13000 119755.0
1.14000 116932.0
1.15000 114790.0
1.16000 111980.0
1.17000 109921.0
1.18000 107988.0
1.19000 106027.0
1.20000 104862.0
1.21000 103911.0
1.22000 102886.0
1.23000 102141.0
1.24000 101981.0
1.25000 102354.0
1.26000 103506.0
1.27000 104055.0
1.28000 107010.0
1.29000 110203.0
1.30000 114862.0
1.31000 119261.0
1.32000 124859.0
1.33000 135287.0
1.34000 150640.0
1.35000 170025.0
1.36000 198588.0
1.37000 240838.0
1.38000 312852.0
1.39000 443445.0
1.40000 648876.0
1.41000 992373.0
1.42000 1359020.0
1.43000 1577313.0
1.44000 1512710.0
1.45000 1181770.0
1.46000 765619.0
1.47000 507605.0
1.48000 371310.0
1.49000 285882.0
1.50000 224310.0
1.51000 186178.0
1.52000 149696.0
1.53000 122445.0
1.54000 103462.0
1.55000 89547.0
1.56000 77035.0
1.57000 68043.0
1.58000 59953.0
1.59000 53428.0
1.60000 48600.0
1.61000 43946.0
1.62000 40004.0
1.63000 36328.0
1.64000 33342.0
1.65000 31240.0
1.66000 28374.0
1.67000 26317.0
1.68000 24500.0
1.69000 22620.0
1.70000 21327.0
1.71000 19952.0
1.72000 18853.0
1.73000 17063.0
1.74000 15718.0
1.75000 14971.0
1.76000 13638.0
1.77000 12900.0
1.78000 12332.0
1.79000 11558.0
1.80000 11049.0
1.81000 10446.0
1.82000 10042.0
1.83000 9555.0
1.84000 8983.0
1.85000 8515.0
1.86000 8351.0
1.87000 7653.0
1.88000 7656.0
1.89000 7126.0
1.90000 6889.0
1.91000 6692.0
1.92000 6364.0
1.93000 6389.0
1.94000 5931.0
1.95000 5672.0
1.96000 5313.0
1.97000 5271.0
1.98000 4894.0
1.99000 4881.0
2.00000 4756.0
2.01000 4520.0
2.02000 4277.0
2.03000 4348.0
2.04000 4080.0
2.05000 3800.0
2.06000 3867.0
2.07000 3648.0
2.08000 3563.0
2.09000 3465.0
2.10000 3268.0
2.11000 3292.0
2.12000 2968.0
2.13000 2947.0
2.14000 2708.0
2.15000 2777.0
2.16000 2688.0
2.17000 2495.0
2.18000 2508.0
2.19000 2282.0
2.20000 2266.0
2.21000 2130.0
2.22000 2132.0
2.23000 2048.0
2.24000 2064.0
2.25000 1916.0
2.26000 1968.0
2.27000 1819.0
2.28000 1767.0
2.29000 1793.0
2.30000 1691.0
2.31000 1633.0
2.32000 1596.0
2.33000 1434.0
2.34000 1408.0
2.35000 1388.0
2.36000 1471.0
2.37000 1404.0
2.38000 1358.0
2.39000 1358.0
2.40000 1287.0
2.41000 1278.0
2.42000 1314.0
2.43000 1290.0
2.44000 1248.0
2.45000 1222.0
2.46000 1218.0
2.47000 1203.0
2.48000 1311.0
2.49000 1444.0
2.50000 1680.0
2.51000 1931.0
2.52000 2313.0
2.53000 2978.0
2.54000 4361.0
2.55000 7269.0
2.56000 13446.0
2.57000 22728.0
2.58000 30689.0
2.59000 29839.0
2.60000 21529.0
2.61000 14395.0
2.62000 10444.0
2.63000 8115.0
2.64000 6558.0
2.65000 5700.0
2.66000 4743.0
2.67000 4372.0
2.68000 3844.0
2.69000 3501.0
2.70000 3222.0
2.71000 2751.0
2.72000 2481.0
2.73000 2287.0
2.74000 1920.0
2.75000 1813.0
2.76000 1609.0
2.77000 1506.0
2.78000 1403.0
2.79000 1310.0
2.80000 1199.0
2.81000 1138.0
2.82000 1057.0
2.83000 1005.0
2.84000 912.0
2.85000 917.0
2.86000 845.0
2.87000 798.0
2.88000 657.0
2.89000 661.0
2.90000 609.0
2.91000 611.0
2.92000 645.0
2.93000 624.0
2.94000 625.0
2.95000 595.0
2.96000 554.0
2.97000 577.0
2.98000 485.0
2.99000 469.0
3.00000 466.0
3.01000 426.0
3.02000 399.0
3.03000 364.0
3.04000 384.0
3.05000 315.0
3.06000 364.0
3.07000 369.0
3.08000 372.0
3.09000 311.0
3.10000 328.0
3.11000 308.0
3.12000 297.0
3.13000 281.0
3.14000 299.0
3.15000 260.0
3.16000 305.0
3.17000 307.0
3.18000 304.0
3.19000 269.0
3.20000 299.0
3.21000 265.0
3.22000 226.0
3.23000 184.0
3.24000 216.0
3.25000 202.0
3.26000 217.0
3.27000 168.0
3.28000 194.0
3.29000 163.0
3.30000 217.0
3.31000 188.0
3.32000 195.0
3.33000 165.0
3.34000 196.0
3.35000 180.0
3.36000 194.0
3.37000 165.0
3.38000 158.0
3.39000 165.0
3.40000 146.0
3.41000 174.0
3.42000 166.0
3.43000 142.0
3.44000 157.0
3.45000 134.0
3.46000 147.0
3.47000 142.0
3.48000 153.0
3.49000 155.0
3.50000 126.0
3.51000 165.0
3.52000 171.0
3.53000 135.0
3.54000 134.0
3.55000 154.0
3.56000 149.0
3.57000 158.0
3.58000 149.0
3.59000 153.0
3.60000 131.0
3.61000 150.0
3.62000 140.0
3.63000 158.0
3.64000 165.0
3.65000 181.0
3.66000 173.0
3.67000 163.0
3.68000 182.0
3.69000 218.0
3.70000 203.0
3.71000 233.0
3.72000 285.0
3.73000 341.0
3.74000 515.0
3.75000 763.0
3.76000 1209.0
3.77000 2031.0
3.78000 2694.0
3.79000 2680.0
3.80000 2223.0
3.81000 1590.0
3.82000 1111.0
3.83000 914.0
3.84000 766.0
3.85000 659.0
3.86000 511.0
3.87000 459.0
3.88000 405.0
3.89000 364.0
3.90000 340.0
3.91000 324.0
3.92000 297.0
3.93000 249.0
3.94000 262.0
3.95000 255.0
3.96000 202.0
3.97000 193.0
3.98000 204.0
3.99000 194.0
4.00000 191.0
4.01000 169.0
4.02000 159.0
4.03000 162.0
4.04000 169.0
4.05000 159.0
4.06000 150.0
4.07000 156.0
4.08000 153.0
4.09000 126.0
4.10000 156.0
4.11000 115.0
4.12000 107.0
4.13000 119.0
4.14000 102.0
4.15000 119.0
4.16000 106.0
4.17000 103.0
4.18000 119.0
4.19000 105.0
4.20000 104.0
4.21000 120.0
4.22000 123.0
4.23000 107.0
4.24000 98.0
4.25000 89.0
4.26000 92.0
4.27000 72.0
4.28000 72.0
4.29000 77.0
4.30000 75.0
4.31000 75.0
4.32000 75.0
4.33000 74.0
4.34000 71.0
4.35000 62.0
4.36000 84.0
4.37000 72.0
4.38000 72.0
4.39000 73.0
4.40000 58.0
4.41000 61.0
4.42000 79.0
4.43000 58.0
4.44000 62.0
4.45000 76.0
4.46000 72.0
4.47000 62.0
4.48000 60.0
4.49000 59.0
4.50000 53.0
4.51000 59.0
4.52000 45.0
4.53000 67.0
4.54000 69.0
4.55000 57.0
4.56000 57.0
4.57000 47.0
4.58000 61.0
4.59000 58.0
4.60000 59.0
4.61000 43.0
4.62000 70.0
4.63000 53.0
4.64000 59.0
4.65000 60.0
4.66000 48.0
4.67000 46.0
4.68000 51.0
4.69000 40.0
4.70000 46.0
4.71000 28.0
4.72000 51.0
4.73000 52.0
4.74000 42.0
4.75000 45.0
4.76000 42.0
4.77000 45.0
4.78000 39.0
4.79000 40.0
4.80000 40.0
4.81000 43.0
4.82000 34.0
4.83000 39.0
4.84000 49.0
4.85000 31.0
4.86000 40.0
4.87000 41.0
4.88000 47.0
4.89000 41.0
4.90000 47.0
4.91000 51.0
4.92000 42.0
4.93000 38.0
4.94000 58.0
4.95000 56.0
4.96000 75.0
4.97000 95.0
4.98000 160.0
4.99000 222.0
5.00000 295.0
5.01000 365.0
5.02000 368.0
5.03000 262.0
5.04000 165.0
5.05000 176.0
5.06000 130.0
5.07000 121.0
5.08000 110.0
5.09000 100.0
5.10000 86.0
5.11000 73.0
5.12000 81.0
5.13000 46.0
5.14000 49.0
5.15000 52.0
5.16000 55.0
5.17000 52.0
5.18000 34.0
5.19000 40.0
5.20000 42.0
5.21000 32.0
5.22000 31.0
5.23000 23.0
5.24000 37.0
5.25000 28.0
5.26000 29.0
5.27000 28.0
5.28000 31.0
5.29000 31.0
5.30000 39.0
5.31000 30.0
5.32000 25.0
5.33000 21.0
5.34000 26.0
5.35000 48.0
5.36000 25.0
5.37000 37.0
5.38000 27.0
5.39000 21.0
5.40000 23.0
5.41000 20.0
5.42000 30.0
5.43000 26.0
5.44000 30.0
5.45000 27.0
5.46000 15.0
5.47000 16.0
5.48000 27.0
5.49000 25.0
5.50000 24.0
5.51000 23.0
5.52000 30.0
5.53000 16.0
5.54000 26.0
5.55000 23.0
5.56000 18.0
5.57000 21.0
5.58000 24.0
5.59000 21.0
5.60000 19.0
5.61000 19.0
5.62000 30.0
5.63000 23.0
5.64000 22.0
5.65000 22.0
5.66000 23.0
5.67000 28.0
5.68000 12.0
5.69000 27.0
5.70000 35.0
5.71000 15.0
5.72000 18.0
5.73000 21.0
5.74000 26.0
5.75000 27.0
5.76000 9.0
5.77000 11.0
5.78000 25.0
5.79000 22.0
5.80000 19.0
5.81000 31.0
5.82000 24.0
5.83000 27.0
5.84000 15.0
5.85000 16.0
5.86000 21.0
5.87000 17.0
5.88000 18.0
5.89000 20.0
5.90000 23.0
5.91000 11.0
5.92000 28.0
5.93000 23.0
5.94000 17.0
5.95000 24.0
5.96000 14.0
5.97000 19.0
5.98000 17.0
5.99000 15.0
6.00000 13.0
6.01000 14.0
6.02000 20.0
6.03000 24.0
6.04000 16.0
6.05000 11.0
6.06000 13.0
6.07000 16.0
6.08000 17.0
6.09000 16.0
6.10000 20.0
6.11000 10.0
6.12000 12.0
6.13000 10.0
6.14000 18.0
6.15000 14.0
6.16000 16.0
6.17000 16.0
6.18000 15.0
6.19000 15.0
6.20000 20.0
6.21000 32.0
6.22000 37.0
6.23000 61.0
6.24000 43.0
6.25000 45.0
6.26000 40.0
6.27000 39.0
6.28000 33.0
6.29000 28.0
6.30000 23.0
6.31000 30.0
6.32000 39.0
6.33000 25.0
6.34000 20.0
6.35000 31.0
6.36000 16.0
6.37000 22.0
6.38000 20.0
6.39000 25.0
6.40000 21.0
6.41000 17.0
6.42000 27.0
6.43000 21.0
6.44000 15.0
6.45000 18.0
6.46000 18.0
6.47000 15.0
6.48000 18.0
6.49000 19.0
6.50000 11.0
6.51000 13.0
6.52000 12.0
6.53000 14.0
6.54000 12.0
6.55000 10.0
6.56000 16.0
6.57000 11.0
6.58000 7.0
6.59000 16.0
6.60000 6.0
6.61000 10.0
6.62000 15.0
6.63000 17.0
6.64000 14.0
6.65000 11.0
6.66000 22.0
6.67000 15.0
6.68000 14.0
6.69000 13.0
6.70000 20.0
6.71000 17.0
6.72000 15.0
6.73000 8.0
6.74000 15.0
6.75000 12.0
6.76000 18.0
6.77000 15.0
6.78000 11.0
6.79000 9.0
6.80000 18.0
6.81000 14.0
6.82000 20.0
6.83000 21.0
6.84000 13.0
6.85000 20.0
6.86000 16.0
6.87000 16.0
6.88000 18.0
6.89000 17.0
6.90000 16.0
6.91000 9.0
6.92000 13.0
6.93000 20.0
6.94000 12.0
6.95000 16.0
6.96000 23.0
6.97000 17.0
6.98000 4.0
6.99000 20.0
7.00000 17.0
7.01000 7.0
7.02000 15.0
7.03000 11.0
7.04000 13.0
7.05000 8.0
7.06000 5.0
7.07000 19.0
7.08000 15.0
7.09000 9.0
7.10000 15.0
7.11000 11.0
7.12000 15.0
7.13000 14.0
7.14000 9.0
7.15000 9.0
7.16000 14.0
7.17000 15.0
7.18000 18.0
7.19000 7.0
7.20000 18.0
7.21000 11.0
7.22000 15.0
7.23000 19.0
7.24000 12.0
7.25000 10.0
7.26000 17.0
7.27000 14.0
7.28000 20.0
7.29000 21.0
7.30000 26.0
7.31000 27.0
7.32000 19.0
7.33000 14.0
7.34000 15.0
7.35000 21.0
7.36000 20.0
7.37000 19.0
7.38000 22.0
7.39000 24.0
7.40000 19.0
7.41000 18.0
7.42000 11.0
7.43000 14.0
7.44000 14.0
7.45000 15.0
7.46000 34.0
7.47000 19.0
7.48000 20.0
7.49000 36.0
7.50000 20.0
7.51000 12.0
7.52000 9.0
7.53000 11.0
7.54000 18.0
7.55000 13.0
7.56000 15.0
7.57000 10.0
7.58000 13.0
7.59000 9.0
7.60000 7.0
7.61000 15.0
7.62000 16.0
7.63000 16.0
7.64000 12.0
7.65000 12.0
7.66000 14.0
7.67000 5.0
7.68000 11.0
7.69000 9.0
7.70000 7.0
7.71000 18.0
7.72000 13.0
7.73000 19.0
7.74000 11.0
7.75000 9.0
7.76000 14.0
7.77000 11.0
7.78000 16.0
7.79000 10.0
7.80000 16.0
7.81000 16.0
7.82000 15.0
7.83000 16.0
7.84000 10.0
7.85000 9.0
7.86000 7.0
7.87000 11.0
7.88000 1.0
7.89000 7.0
7.90000 8.0
7.91000 7.0
7.92000 13.0
7.93000 12.0
7.94000 9.0
7.95000 12.0
7.96000 11.0
7.97000 7.0
7.98000 8.0
7.99000 10.0
8.00000 9.0
8.01000 14.0
8.02000 5.0
8.03000 10.0
8.04000 10.0
8.05000 7.0
8.06000 3.0
8.07000 9.0
8.08000 10.0
8.09000 13.0
8.10000 9.0
8.11000 11.0
8.12000 11.0
8.13000 8.0
8.14000 9.0
8.15000 8.0
8.16000 10.0
8.17000 8.0
8.18000 17.0
8.19000 8.0
8.20000 4.0
8.21000 14.0
8.22000 15.0
8.23000 11.0
8.24000 11.0
8.25000 10.0
8.26000 10.0
8.27000 11.0
8.28000 14.0
8.29000 9.0
8.30000 16.0
8.31000 9.0
8.32000 10.0
8.33000 18.0
8.34000 26.0
8.35000 26.0
8.36000 20.0
8.37000 25.0
8.38000 26.0
8.39000 20.0
8.40000 28.0
8.41000 11.0
8.42000 16.0
8.43000 15.0
8.44000 17.0
8.45000 13.0
8.46000 18.0
8.47000 15.0
8.48000 9.0
8.49000 15.0
8.50000 25.0
8.51000 11.0
8.52000 21.0
8.53000 15.0
8.54000 10.0
8.55000 19.0
8.56000 11.0
8.57000 36.0
8.58000 15.0
8.59000 25.0
8.60000 23.0
8.61000 23.0
8.62000 22.0
8.63000 17.0
8.64000 13.0
8.65000 14.0
8.66000 23.0
8.67000 17.0
8.68000 26.0
8.69000 19.0
8.70000 17.0
8.71000 17.0
8.72000 14.0
8.73000 23.0
8.74000 33.0
8.75000 22.0
8.76000 22.0
8.77000 11.0
8.78000 16.0
8.79000 13.0
8.80000 9.0
8.81000 18.0
8.82000 10.0
8.83000 7.0
8.84000 21.0
8.85000 8.0
8.86000 9.0
8.87000 20.0
8.88000 20.0
8.89000 9.0
8.90000 31.0
8.91000 24.0
8.92000 16.0
8.93000 24.0
8.94000 16.0
8.95000 13.0
8.96000 8.0
8.97000 18.0
8.98000 11.0
8.99000 16.0
9.00000 22.0
9.01000 24.0
9.02000 16.0
9.03000 21.0
9.04000 16.0
9.05000 16.0
9.06000 16.0
9.07000 9.0
9.08000 9.0
9.09000 20.0
9.10000 13.0
9.11000 13.0
9.12000 13.0
9.13000 8.0
9.14000 15.0
9.15000 13.0
9.16000 14.0
9.17000 14.0
9.18000 21.0
9.19000 12.0
9.20000 20.0
9.21000 22.0
9.22000 13.0
9.23000 9.0
9.24000 4.0
9.25000 12.0
9.26000 13.0
9.27000 8.0
9.28000 12.0
9.29000 11.0
9.30000 6.0
9.31000 5.0
9.32000 6.0
9.33000 5.0
9.34000 3.0
9.35000 9.0
9.36000 10.0
9.37000 11.0
9.38000 14.0
9.39000 6.0
9.40000 14.0
9.41000 4.0
9.42000 7.0
9.43000 12.0
9.44000 6.0
9.45000 7.0
9.46000 14.0
9.47000 7.0
9.48000 12.0
9.49000 14.0
9.50000 13.0
9.51000 8.0
9.52000 12.0
9.53000 8.0
9.54000 13.0
9.55000 12.0
9.56000 8.0
9.57000 11.0
9.58000 20.0
9.59000 11.0
9.60000 19.0
9.61000 13.0
9.62000 19.0
9.63000 16.0
9.64000 11.0
9.65000 14.0
9.66000 15.0
9.67000 10.0
9.68000 14.0
9.69000 12.0
9.70000 14.0
9.71000 10.0
9.72000 7.0
9.73000 14.0
9.74000 12.0
9.75000 11.0
9.76000 12.0
9.77000 9.0
9.78000 10.0
9.79000 10.0
9.80000 9.0
9.81000 17.0
9.82000 14.0
9.83000 18.0
9.84000 16.0
9.85000 26.0
9.86000 13.0
9.87000 20.0
9.88000 11.0
9.89000 16.0
9.90000 17.0
9.91000 8.0
9.92000 11.0
9.93000 18.0
9.94000 12.0
9.95000 9.0
9.96000 4.0
9.97000 9.0
9.98000 9.0
9.99000 11.0
