0.01000 9540216.0
0.02000 8880324.0
0.03000 7005489.0
0.04000 4999523.0
0.05000 3107522.0
0.06000 1673695.0
0.07000 1203797.0
0.08000 1239177.0
0.09000 1376064.0
0.10000 1526495.0
0.11000 1675215.0
0.12000 1825833.0
0.13000 2023413.0
0.14000 2162570.0
0.15000 2319498.0
0.16000 2425345.0
0.17000 2581836.0
0.18000 2762337.0
0.19000 2905554.0
0.20000 3029769.0
0.21000 3149419.0
0.22000 3283288.0
0.23000 3491593.0
0.24000 3600839.0
0.25000 3756606.0
0.26000 3886930.0
0.27000 3998957.0
0.28000 4190511.0
0.29000 4335572.0
0.30000 4372932.0
0.31000 4539983.0
0.32000 4655190.0
0.33000 4836087.0
0.34000 4988110.0
0.35000 5081574.0
0.36000 5203407.0
0.37000 5318932.0
0.38000 5459611.0
0.39000 5568009.0
0.40000 5636525.0
0.41000 5775727.0
0.42000 5856159.0
0.43000 6001392.0
0.44000 6155112.0
0.45000 6202150.0
0.46000 6330827.0
0.47000 6380007.0
0.48000 6503075.0
0.49000 6625221.0
0.50000 6692566.0
0.51000 6839038.0
0.52000 6926449.0
0.53000 7018788.0
0.54000 7173808.0
0.55000 7224593.0
0.56000 7304484.0
0.57000 7371738.0
0.58000 7425410.0
0.59000 7550783.0
0.60000 7566535.0
0.61000 7747195.0
0.62000 7871344.0
0.63000 7843046.0
0.64000 7934387.0
0.65000 7936685.0
0.66000 7992604.0
0.67000 8069501.0
0.68000 8024986.0
0.69000 8083116.0
0.70000 8088062.0
0.71000 8041148.0
0.72000 8094121.0
0.73000 7888431.0
0.74000 7851939.0
0.75000 7647655.0
0.76000 7266291.0
0.77000 6727745.0
0.78000 5752315.0
0.79000 4807653.0
0.80000 3945874.0
0.81000 3234885.0
0.82000 2768928.0
0.83000 2360886.0
0.84000 2065600.0
0.85000 1858534.0
0.86000 1647693.0
0.87000 1485302.0
0.88000 1327043.0
0.89000 1213576.0
0.90000 1117356.0
0.91000 1019063.0
0.92000 940465.0
0.93000 866363.0
0.94000 796608.0
0.95000 753988.0
0.96000 698836.0
0.97000 648993.0
0.98000 608671.0
0.99000 565474.0
1.00000 536611.0
1.01000 504494.0
1.02000 478875.0
1.03000 459789.0
1.04000 423250.0
1.05000 404444.0
1.06000 384692.0
1.07000 364030.0
1.08000 346574.0
1.09000 327645.0
1.10000 315875.0
1.11000 305108.0
1.12000 294361.0
1.13000 285499.0
1.14000 276452.0
1.15000 271212.0
1.16000 271480.0
1.17000 271921.0
1.18000 277431.0
1.19000 284822.0
1.20000 296515.0
1.21000 321665.0
1.22000 370617.0
1.23000 457756.0
1.24000 594519.0
1.25000 681068.0
1.26000 604757.0
1.27000 383827.0
1.28000 186756.0
1.29000 78881.0
1.30000 49916.0
1.31000 42775.0
1.32000 40505.0
1.33000 39876.0
1.34000 40310.0
1.35000 40657.0
1.36000 41268.0
1.37000 40679.0
1.38000 40827.0
1.39000 39420.0
1.40000 38954.0
1.41000 38146.0
1.42000 37130.0
1.43000 36215.0
1.44000 34915.0
1.45000 34264.0
1.46000 33306.0
1.47000 31525.0
1.48000 31075.0
1.49000 29970.0
1.50000 29151.0
1.51000 28249.0
1.52000 26910.0
1.53000 26128.0
1.54000 25444.0
1.55000 24823.0
1.56000 23834.0
1.57000 22921.0
1.58000 22173.0
1.59000 21738.0
1.60000 21017.0
1.61000 20069.0
1.62000 19736.0
1.63000 18827.0
1.64000 18410.0
1.65000 17646.0
1.66000 17088.0
1.67000 16755.0
1.68000 15682.0
1.69000 15391.0
1.70000 15048.0
1.71000 14043.0
1.72000 13534.0
1.73000 13385.0
1.74000 13005.0
1.75000 12660.0
1.76000 12046.0
1.77000 11534.0
1.78000 11268.0
1.79000 10957.0
1.80000 10709.0
1.81000 10523.0
1.82000 10283.0
1.83000 9923.0
1.84000 9592.0
1.85000 9377.0
1.86000 9284.0
1.87000 8871.0
1.88000 8785.0
1.89000 8572.0
1.90000 8204.0
1.91000 8000.0
1.92000 7719.0
1.93000 7692.0
1.94000 7595.0
1.95000 7413.0
1.96000 7335.0
1.97000 7253.0
1.98000 7330.0
1.99000 7038.0
2.00000 7262.0
2.01000 7649.0
2.02000 7973.0
2.03000 8683.0
2.04000 8976.0
2.05000 9517.0
2.06000 10265.0
2.07000 11625.0
2.08000 14379.0
2.09000 18885.0
2.10000 24412.0
2.11000 31706.0
2.12000 37356.0
2.13000 35130.0
2.14000 23386.0
2.15000 12455.0
2.16000 6833.0
2.17000 4403.0
2.18000 3230.0
2.19000 2614.0
2.20000 2173.0
2.21000 1851.0
2.22000 1743.0
2.23000 1626.0
2.24000 1510.0
2.25000 1399.0
2.26000 1401.0
2.27000 1323.0
2.28000 1335.0
2.29000 1156.0
2.30000 1174.0
2.31000 1210.0
2.32000 1236.0
2.33000 1156.0
2.34000 1171.0
2.35000 1087.0
2.36000 1060.0
2.37000 1055.0
2.38000 956.0
2.39000 1019.0
2.40000 961.0
2.41000 945.0
2.42000 952.0
2.43000 867.0
2.44000 908.0
2.45000 833.0
2.46000 897.0
2.47000 880.0
2.48000 900.0
2.49000 810.0
2.50000 811.0
2.51000 758.0
2.52000 757.0
2.53000 773.0
2.54000 731.0
2.55000 742.0
2.56000 727.0
2.57000 754.0
2.58000 720.0
2.59000 651.0
2.60000 653.0
2.61000 641.0
2.62000 606.0
2.63000 570.0
2.64000 614.0
2.65000 602.0
2.66000 575.0
2.67000 599.0
2.68000 557.0
2.69000 557.0
2.70000 547.0
2.71000 561.0
2.72000 525.0
2.73000 563.0
2.74000 529.0
2.75000 506.0
2.76000 486.0
2.77000 534.0
2.78000 507.0
2.79000 512.0
2.80000 480.0
2.81000 509.0
2.82000 510.0
2.83000 494.0
2.84000 483.0
2.85000 417.0
2.86000 480.0
2.87000 451.0
2.88000 439.0
2.89000 466.0
2.90000 441.0
2.91000 430.0
2.92000 466.0
2.93000 518.0
2.94000 496.0
2.95000 499.0
2.96000 557.0
2.97000 595.0
2.98000 557.0
2.99000 616.0
3.00000 619.0
3.01000 692.0
3.02000 815.0
3.03000 945.0
3.04000 1148.0
3.05000 1425.0
3.06000 1658.0
3.07000 1767.0
3.08000 1585.0
3.09000 1171.0
3.10000 750.0
3.11000 578.0
3.12000 411.0
3.13000 291.0
3.14000 220.0
3.15000 201.0
3.16000 147.0
3.17000 126.0
3.18000 141.0
3.19000 124.0
3.20000 100.0
3.21000 87.0
3.22000 121.0
3.23000 98.0
3.24000 96.0
3.25000 97.0
3.26000 95.0
3.27000 94.0
3.28000 96.0
3.29000 106.0
3.30000 104.0
3.31000 100.0
3.32000 91.0
3.33000 107.0
3.34000 106.0
3.35000 99.0
3.36000 103.0
3.37000 95.0
3.38000 100.0
3.39000 103.0
3.40000 107.0
3.41000 125.0
3.42000 123.0
3.43000 121.0
3.44000 111.0
3.45000 87.0
3.46000 109.0
3.47000 90.0
3.48000 122.0
3.49000 97.0
3.50000 100.0
3.51000 103.0
3.52000 99.0
3.53000 98.0
3.54000 106.0
3.55000 119.0
3.56000 95.0
3.57000 99.0
3.58000 95.0
3.59000 119.0
3.60000 100.0
3.61000 100.0
3.62000 87.0
3.63000 105.0
3.64000 87.0
3.65000 121.0
3.66000 112.0
3.67000 82.0
3.68000 102.0
3.69000 102.0
3.70000 110.0
3.71000 107.0
3.72000 108.0
3.73000 91.0
3.74000 108.0
3.75000 109.0
3.76000 116.0
3.77000 119.0
3.78000 123.0
3.79000 112.0
3.80000 111.0
3.81000 104.0
3.82000 95.0
3.83000 104.0
3.84000 99.0
3.85000 116.0
3.86000 95.0
3.87000 95.0
3.88000 82.0
3.89000 99.0
3.90000 116.0
3.91000 92.0
3.92000 107.0
3.93000 112.0
3.94000 100.0
3.95000 120.0
3.96000 95.0
3.97000 135.0
3.98000 106.0
3.99000 146.0
4.00000 155.0
4.01000 184.0
4.02000 200.0
4.03000 242.0
4.04000 228.0
4.05000 208.0
4.06000 124.0
4.07000 82.0
4.08000 80.0
4.09000 66.0
4.10000 68.0
4.11000 54.0
4.12000 49.0
4.13000 43.0
4.14000 39.0
4.15000 25.0
4.16000 30.0
4.17000 26.0
4.18000 30.0
4.19000 29.0
4.20000 29.0
4.21000 35.0
4.22000 31.0
4.23000 37.0
4.24000 27.0
4.25000 24.0
4.26000 29.0
4.27000 32.0
4.28000 39.0
4.29000 36.0
4.30000 42.0
4.31000 42.0
4.32000 42.0
4.33000 47.0
4.34000 35.0
4.35000 31.0
4.36000 46.0
4.37000 29.0
4.38000 44.0
4.39000 32.0
4.40000 55.0
4.41000 40.0
4.42000 45.0
4.43000 29.0
4.44000 38.0
4.45000 39.0
4.46000 35.0
4.47000 32.0
4.48000 34.0
4.49000 44.0
4.50000 38.0
4.51000 58.0
4.52000 43.0
4.53000 47.0
4.54000 42.0
4.55000 38.0
4.56000 32.0
4.57000 38.0
4.58000 45.0
4.59000 40.0
4.60000 41.0
4.61000 49.0
4.62000 34.0
4.63000 37.0
4.64000 48.0
4.65000 40.0
