0.00500 30085086.0
0.01500 33920928.0
0.02500 29727360.0
0.03500 22662978.0
0.04500 15163455.0
0.05500 8068047.0
0.06500 4038076.0
0.07500 2869375.0
0.08500 2782690.0
0.09500 3083109.0
0.10500 3387202.0
0.11500 3698189.0
0.12500 3996572.0
0.13500 4188636.0
0.14500 4550582.0
0.15500 4876226.0
0.16500 5174748.0
0.17500 5539127.0
0.18500 5667675.0
0.19500 6010618.0
0.20500 6363566.0
0.21500 6637651.0
0.22500 7035632.0
0.23500 7130744.0
0.24500 7418889.0
0.25500 7892293.0
0.26500 8109816.0
0.27500 8560263.0
0.28500 8628051.0
0.29500 8872097.0
0.30500 9268729.0
0.31500 9495179.0
0.32500 9864832.0
0.33500 9964770.0
0.34500 10119678.0
0.35500 10625911.0
0.36500 10869662.0
0.37500 11259724.0
0.38500 11455965.0
0.39500 11547543.0
0.40500 12068953.0
0.41500 12376560.0
0.42500 12744075.0
0.43500 12965191.0
0.44500 12961965.0
0.45500 13590387.0
0.46500 13827671.0
0.47500 14048526.0
0.48500 14389266.0
0.49500 14399230.0
0.50500 14926707.0
0.51500 15238397.0
0.52500 15422233.0
0.53500 15771850.0
0.54500 15628504.0
0.55500 16081844.0
0.56500 16448649.0
0.57500 16546027.0
0.58500 16954420.0
0.59500 17021448.0
0.60500 17304428.0
0.61500 17758308.0
0.62500 17688452.0
0.63500 18018268.0
0.64500 17892896.0
0.65500 18022476.0
0.66500 18259216.0
0.67500 18084470.0
0.68500 18258668.0
0.69500 18013784.0
0.70500 17616872.0
0.71500 17336018.0
0.72500 16107649.0
0.73500 14417276.0
0.74500 12182881.0
0.75500 9653368.0
0.76500 7813665.0
0.77500 6318275.0
0.78500 5264615.0
0.79500 4483844.0
0.80500 3792117.0
0.81500 3328467.0
0.82500 2906864.0
0.83500 2542338.0
0.84500 2313182.0
0.85500 2034124.0
0.86500 1852033.0
0.87500 1677005.0
0.88500 1507438.0
0.89500 1395614.0
0.90500 1246874.0
0.91500 1151771.0
0.92500 1066534.0
0.93500 959766.0
0.94500 899334.0
0.95500 825103.0
0.96500 752413.0
0.97500 707862.0
0.98500 655431.0
0.99500 609095.0
1.00500 562257.0
1.01500 524681.0
1.02500 488616.0
1.03500 453240.0
1.04500 433697.0
1.05500 396941.0
1.06500 365138.0
1.07500 354844.0
1.08500 329781.0
1.09500 304950.0
1.10500 290703.0
1.11500 274236.0
1.12500 256140.0
1.13500 241442.0
1.14500 235382.0
1.15500 217300.0
1.16500 198181.0
1.17500 191687.0
1.18500 185673.0
1.19500 170977.0
1.20500 160623.0
1.21500 155839.0
1.22500 147918.0
1.23500 137129.0
1.24500 131478.0
1.25500 128639.0
1.26500 118464.0
1.27500 110809.0
1.28500 108749.0
1.29500 105033.0
1.30500 97437.0
1.31500 90761.0
1.32500 89745.0
1.33500 86923.0
1.34500 80041.0
1.35500 75793.0
1.36500 74524.0
1.37500 71843.0
1.38500 66797.0
1.39500 63953.0
1.40500 63535.0
1.41500 60124.0
1.42500 54919.0
1.43500 54237.0
1.44500 54507.0
1.45500 51807.0
1.46500 47625.0
1.47500 45470.0
1.48500 46402.0
1.49500 44057.0
1.50500 40263.0
1.51500 39333.0
1.52500 38875.0
1.53500 37644.0
1.54500 34503.0
1.55500 33699.0
1.56500 34686.0
1.57500 32608.0
1.58500 29861.0
1.59500 29345.0
1.60500 29925.0
1.61500 28747.0
1.62500 26167.0
1.63500 25902.0
1.64500 26471.0
1.65500 25903.0
1.66500 23623.0
1.67500 22884.0
1.68500 23588.0
1.69500 23333.0
1.70500 21003.0
1.71500 20370.0
1.72500 21482.0
1.73500 21207.0
1.74500 19393.0
1.75500 18474.0
1.76500 18921.0
1.77500 19185.0
1.78500 17512.0
1.79500 16813.0
1.80500 17311.0
1.81500 17467.0
1.82500 16042.0
1.83500 15152.0
1.84500 15992.0
1.85500 16227.0
1.86500 15427.0
1.87500 14360.0
1.88500 14689.0
1.89500 15338.0
1.90500 14757.0
1.91500 13473.0
1.92500 13831.0
1.93500 14232.0
1.94500 13928.0
1.95500 12933.0
1.96500 12835.0
1.97500 13769.0
1.98500 13809.0
1.99500 12719.0
2.00500 12587.0
2.01500 13241.0
2.02500 13636.0
2.03500 12771.0
2.04500 12588.0
2.05500 13003.0
2.06500 13564.0
2.07500 12891.0
2.08500 12234.0
2.09500 12498.0
2.10500 13490.0
2.11500 12819.0
2.12500 12527.0
2.13500 12879.0
2.14500 13428.0
2.15500 13587.0
2.16500 13042.0
2.17500 13033.0
2.18500 14159.0
2.19500 14426.0
2.20500 14385.0
2.21500 15644.0
2.22500 17385.0
2.23500 18448.0
2.24500 18209.0
2.25500 19128.0
2.26500 22614.0
2.27500 26023.0
2.28500 27525.0
2.29500 30813.0
2.30500 38070.0
2.31500 46000.0
2.32500 50614.0
2.33500 57503.0
2.34500 92518.0
2.35500 177160.0
2.36500 301509.0
2.37500 435097.0
2.38500 514644.0
2.39500 521593.0
2.40500 459056.0
2.41500 364202.0
2.42500 260821.0
2.43500 178521.0
2.44500 119265.0
2.45500 79421.0
2.46500 56818.0
2.47500 41438.0
2.48500 31009.0
2.49500 24208.0
2.50500 19284.0
2.51500 16703.0
2.52500 14290.0
2.53500 12010.0
2.54500 10552.0
2.55500 9125.0
2.56500 8295.0
2.57500 7225.0
2.58500 6290.0
2.59500 5720.0
2.60500 5156.0
2.61500 4736.0
2.62500 4438.0
2.63500 4189.0
2.64500 3747.0
2.65500 3522.0
2.66500 3242.0
2.67500 3026.0
2.68500 2752.0
2.69500 2692.0
2.70500 2297.0
2.71500 2332.0
2.72500 2132.0
2.73500 1987.0
2.74500 1931.0
2.75500 1828.0
2.76500 1792.0
2.77500 1776.0
2.78500 1709.0
2.79500 1655.0
2.80500 1558.0
2.81500 1512.0
2.82500 1428.0
2.83500 1363.0
2.84500 1258.0
2.85500 1257.0
2.86500 1244.0
2.87500 1150.0
2.88500 1130.0
2.89500 1131.0
2.90500 1122.0
2.91500 1110.0
2.92500 1120.0
2.93500 1065.0
2.94500 997.0
2.95500 997.0
2.96500 975.0
2.97500 943.0
2.98500 879.0
2.99500 871.0
3.00500 878.0
3.01500 750.0
3.02500 815.0
3.03500 805.0
3.04500 816.0
3.05500 778.0
3.06500 713.0
3.07500 751.0
3.08500 709.0
3.09500 738.0
3.10500 744.0
3.11500 696.0
3.12500 680.0
3.13500 646.0
3.14500 654.0
3.15500 676.0
3.16500 682.0
3.17500 603.0
3.18500 614.0
3.19500 570.0
3.20500 565.0
3.21500 575.0
3.22500 600.0
3.23500 632.0
3.24500 591.0
3.25500 646.0
3.26500 615.0
3.27500 561.0
3.28500 547.0
3.29500 577.0
3.30500 581.0
3.31500 521.0
3.32500 524.0
3.33500 521.0
3.34500 504.0
3.35500 485.0
3.36500 466.0
3.37500 417.0
3.38500 435.0
3.39500 481.0
3.40500 476.0
3.41500 420.0
3.42500 422.0
3.43500 438.0
3.44500 526.0
3.45500 500.0
3.46500 525.0
3.47500 527.0
3.48500 503.0
3.49500 592.0
3.50500 492.0
3.51500 444.0
3.52500 481.0
3.53500 507.0
3.54500 455.0
3.55500 420.0
3.56500 444.0
3.57500 464.0
3.58500 415.0
3.59500 384.0
3.60500 359.0
3.61500 350.0
3.62500 459.0
3.63500 420.0
3.64500 386.0
3.65500 411.0
3.66500 439.0
3.67500 416.0
3.68500 402.0
3.69500 415.0
3.70500 370.0
3.71500 355.0
3.72500 280.0
3.73500 272.0
3.74500 302.0
3.75500 374.0
3.76500 375.0
3.77500 433.0
3.78500 555.0
3.79500 634.0
3.80500 569.0
3.81500 461.0
3.82500 370.0
3.83500 416.0
3.84500 402.0
3.85500 537.0
3.86500 583.0
3.87500 520.0
3.88500 471.0
3.89500 511.0
3.90500 362.0
3.91500 403.0
3.92500 420.0
3.93500 460.0
3.94500 447.0
3.95500 384.0
3.96500 480.0
3.97500 465.0
3.98500 434.0
3.99500 278.0
4.00500 307.0
4.01500 346.0
4.02500 356.0
4.03500 315.0
4.04500 313.0
4.05500 338.0
4.06500 325.0
4.07500 351.0
4.08500 338.0
4.09500 338.0
4.10500 340.0
4.11500 335.0
4.12500 327.0
4.13500 340.0
4.14500 275.0
4.15500 248.0
4.16500 343.0
4.17500 382.0
4.18500 326.0
4.19500 261.0
4.20500 245.0
4.21500 311.0
4.22500 307.0
4.23500 264.0
4.24500 331.0
4.25500 340.0
4.26500 296.0
4.27500 306.0
4.28500 252.0
4.29500 310.0
4.30500 300.0
4.31500 280.0
4.32500 273.0
4.33500 300.0
4.34500 296.0
4.35500 374.0
4.36500 418.0
4.37500 378.0
4.38500 360.0
4.39500 349.0
4.40500 366.0
4.41500 425.0
4.42500 476.0
4.43500 390.0
4.44500 406.0
4.45500 405.0
4.46500 445.0
4.47500 434.0
4.48500 622.0
4.49500 704.0
4.50500 832.0
4.51500 1040.0
4.52500 1018.0
4.53500 1220.0
4.54500 998.0
4.55500 1216.0
4.56500 1439.0
4.57500 2091.0
4.58500 2730.0
4.59500 2905.0
4.60500 3291.0
4.61500 3516.0
4.62500 3585.0
4.63500 3718.0
4.64500 3218.0
4.65500 2710.0
4.66500 2375.0
4.67500 2073.0
4.68500 1712.0
4.69500 1459.0
4.70500 1495.0
4.71500 1272.0
4.72500 1294.0
4.73500 1075.0
4.74500 868.0
4.75500 764.0
4.76500 750.0
4.77500 723.0
4.78500 631.0
4.79500 535.0
4.80500 571.0
4.81500 455.0
4.82500 609.0
4.83500 563.0
4.84500 530.0
4.85500 390.0
4.86500 370.0
4.87500 352.0
4.88500 366.0
4.89500 325.0
4.90500 263.0
4.91500 331.0
4.92500 349.0
4.93500 381.0
4.94500 364.0
4.95500 425.0
4.96500 326.0
4.97500 353.0
4.98500 320.0
4.99500 321.0
5.00500 270.0
5.01500 295.0
5.02500 270.0
5.03500 258.0
5.04500 306.0
5.05500 237.0
5.06500 241.0
5.07500 244.0
5.08500 253.0
5.09500 305.0
5.10500 405.0
5.11500 368.0
5.12500 309.0
5.13500 350.0
5.14500 437.0
5.15500 455.0
5.16500 419.0
5.17500 437.0
5.18500 363.0
5.19500 250.0
5.20500 265.0
5.21500 287.0
5.22500 303.0
5.23500 280.0
5.24500 300.0
5.25500 252.0
5.26500 255.0
5.27500 207.0
5.28500 270.0
5.29500 252.0
5.30500 247.0
5.31500 325.0
5.32500 468.0
5.33500 347.0
5.34500 302.0
5.35500 360.0
5.36500 395.0
5.37500 349.0
5.38500 329.0
5.39500 365.0
5.40500 282.0
5.41500 344.0
5.42500 386.0
5.43500 416.0
5.44500 401.0
5.45500 336.0
5.46500 246.0
5.47500 422.0
5.48500 439.0
5.49500 426.0
5.50500 465.0
5.51500 327.0
5.52500 377.0
5.53500 360.0
5.54500 373.0
5.55500 355.0
5.56500 349.0
5.57500 387.0
5.58500 290.0
5.59500 258.0
5.60500 221.0
5.61500 259.0
5.62500 290.0
5.63500 399.0
5.64500 360.0
5.65500 263.0
5.66500 236.0
5.67500 281.0
5.68500 309.0
5.69500 363.0
5.70500 313.0
5.71500 313.0
5.72500 353.0
5.73500 186.0
5.74500 198.0
5.75500 214.0
5.76500 257.0
5.77500 263.0
5.78500 201.0
5.79500 211.0
5.80500 179.0
5.81500 176.0
5.82500 200.0
5.83500 207.0
5.84500 180.0
5.85500 171.0
5.86500 193.0
5.87500 183.0
5.88500 156.0
5.89500 234.0
5.90500 197.0
5.91500 283.0
5.92500 252.0
5.93500 354.0
5.94500 264.0
5.95500 229.0
5.96500 219.0
5.97500 197.0
5.98500 288.0
5.99500 274.0
6.00500 399.0
6.01500 281.0
6.02500 343.0
6.03500 289.0
6.04500 301.0
6.05500 324.0
6.06500 413.0
6.07500 376.0
6.08500 310.0
6.09500 291.0
6.10500 341.0
6.11500 298.0
6.12500 272.0
6.13500 318.0
6.14500 227.0
6.15500 167.0
6.16500 188.0
6.17500 235.0
6.18500 314.0
6.19500 272.0
6.20500 333.0
6.21500 488.0
6.22500 409.0
6.23500 458.0
6.24500 418.0
6.25500 326.0
6.26500 261.0
6.27500 233.0
6.28500 261.0
6.29500 320.0
6.30500 300.0
6.31500 225.0
6.32500 242.0
6.33500 297.0
6.34500 289.0
6.35500 269.0
6.36500 288.0
6.37500 295.0
6.38500 305.0
6.39500 302.0
6.40500 314.0
6.41500 291.0
6.42500 278.0
6.43500 289.0
6.44500 236.0
6.45500 216.0
6.46500 227.0
6.47500 192.0
6.48500 261.0
6.49500 217.0
6.50500 253.0
6.51500 204.0
6.52500 229.0
6.53500 194.0
6.54500 197.0
6.55500 184.0
6.56500 173.0
6.57500 201.0
6.58500 254.0
6.59500 235.0
6.60500 209.0
6.61500 217.0
6.62500 178.0
6.63500 182.0
6.64500 174.0
6.65500 289.0
6.66500 186.0
6.67500 204.0
6.68500 277.0
6.69500 296.0
6.70500 221.0
6.71500 180.0
6.72500 301.0
6.73500 302.0
6.74500 236.0
6.75500 269.0
6.76500 221.0
6.77500 298.0
6.78500 307.0
6.79500 270.0
6.80500 307.0
6.81500 347.0
6.82500 377.0
6.83500 343.0
6.84500 484.0
6.85500 586.0
6.86500 716.0
6.87500 635.0
6.88500 584.0
6.89500 625.0
6.90500 491.0
6.91500 463.0
6.92500 550.0
6.93500 508.0
6.94500 336.0
6.95500 242.0
6.96500 229.0
6.97500 211.0
6.98500 181.0
6.99500 235.0
7.00500 255.0
7.01500 250.0
7.02500 157.0
7.03500 213.0
7.04500 261.0
7.05500 314.0
7.06500 207.0
7.07500 286.0
7.08500 322.0
7.09500 288.0
7.10500 293.0
7.11500 289.0
7.12500 297.0
7.13500 242.0
7.14500 273.0
7.15500 380.0
7.16500 270.0
7.17500 338.0
7.18500 302.0
7.19500 254.0
7.20500 310.0
7.21500 213.0
7.22500 237.0
7.23500 218.0
7.24500 215.0
7.25500 180.0
7.26500 243.0
7.27500 262.0
7.28500 243.0
7.29500 205.0
7.30500 214.0
7.31500 223.0
7.32500 177.0
7.33500 174.0
7.34500 252.0
7.35500 227.0
7.36500 170.0
7.37500 206.0
7.38500 192.0
7.39500 208.0
7.40500 171.0
7.41500 217.0
7.42500 223.0
7.43500 195.0
7.44500 178.0
7.45500 213.0
7.46500 209.0
7.47500 261.0
7.48500 210.0
7.49500 227.0
7.50500 239.0
7.51500 287.0
7.52500 267.0
7.53500 302.0
7.54500 245.0
7.55500 261.0
7.56500 218.0
7.57500 169.0
7.58500 201.0
7.59500 226.0
7.60500 128.0
7.61500 205.0
7.62500 205.0
7.63500 201.0
7.64500 260.0
7.65500 252.0
7.66500 215.0
7.67500 249.0
7.68500 273.0
7.69500 288.0
7.70500 280.0
7.71500 338.0
7.72500 374.0
7.73500 425.0
7.74500 401.0
7.75500 461.0
7.76500 477.0
7.77500 394.0
7.78500 373.0
7.79500 303.0
7.80500 342.0
7.81500 236.0
7.82500 214.0
7.83500 213.0
7.84500 285.0
7.85500 364.0
7.86500 271.0
7.87500 292.0
7.88500 319.0
7.89500 261.0
7.90500 283.0
7.91500 269.0
7.92500 215.0
7.93500 256.0
7.94500 229.0
7.95500 226.0
7.96500 228.0
7.97500 248.0
7.98500 246.0
7.99500 279.0
