0.00500 487003029504.0
0.01500 512323158016.0
0.02500 372744749056.0
0.03500 203668471808.0
0.04500 91152359424.0
0.05500 34735091712.0
0.06500 20578605056.0
0.07500 20944760832.0
0.08500 22141988864.0
0.09500 25699143680.0
0.10500 29086730240.0
0.11500 31384326144.0
0.12500 35680124928.0
0.13500 37130117120.0
0.14500 41157070848.0
0.15500 45569257472.0
0.16500 47544455168.0
0.17500 52391895040.0
0.18500 54493237248.0
0.19500 58093465600.0
0.20500 64140595200.0
0.21500 65753751552.0
0.22500 71268319232.0
0.23500 73871933440.0
0.24500 77501751296.0
0.25500 84991713280.0
0.26500 85477482496.0
0.27500 91638030336.0
0.28500 95105204224.0
0.29500 97739530240.0
0.30500 107180564480.0
0.31500 107866882048.0
0.32500 113382940672.0
0.33500 118998278144.0
0.34500 120392081408.0
0.35500 129817346048.0
0.36500 131819839488.0
0.37500 135965081600.0
0.38500 142268940288.0
0.39500 142382235648.0
0.40500 151287611392.0
0.41500 153783189504.0
0.42500 156457336832.0
0.43500 164735238144.0
0.44500 165060214784.0
0.45500 174052835328.0
0.46500 177111416832.0
0.47500 178069159936.0
0.48500 188099362816.0
0.49500 189004365824.0
0.50500 196632100864.0
0.51500 202135339008.0
0.52500 201719758848.0
0.53500 211016761344.0
0.54500 212059766784.0
0.55500 218427604992.0
0.56500 224086261760.0
0.57500 222189699072.0
0.58500 231289683968.0
0.59500 232394244096.0
0.60500 234680516608.0
0.61500 241799053312.0
0.62500 239664496640.0
0.63500 246001778688.0
0.64500 249224953856.0
0.65500 248265654272.0
0.66500 253986897920.0
0.67500 247266410496.0
0.68500 243267764224.0
0.69500 233490923520.0
0.70500 207759556608.0
0.71500 186137542656.0
0.72500 156596830208.0
0.73500 132624310272.0
0.74500 115746668544.0
0.75500 97847476224.0
0.76500 88171945984.0
0.77500 78479859712.0
0.78500 70536945664.0
0.79500 65614712832.0
0.80500 58394464256.0
0.81500 53992939520.0
0.82500 49968824320.0
0.83500 46053191680.0
0.84500 44011618304.0
0.85500 40307761152.0
0.86500 37884080128.0
0.87500 36172763136.0
0.88500 33424472064.0
0.89500 32567820288.0
0.90500 30165630976.0
0.91500 28415016960.0
0.92500 27580741632.0
0.93500 25583964160.0
0.94500 24632983552.0
0.95500 23532294144.0
0.96500 22310395904.0
0.97500 21578463232.0
0.98500 20402745344.0
0.99500 19707731968.0
1.00500 18580932608.0
1.01500 17729288192.0
1.02500 17313261568.0
1.03500 16385147904.0
1.04500 15932494848.0
1.05500 15437398016.0
1.06500 14624520192.0
1.07500 14224227328.0
1.08500 13688238080.0
1.09500 13108307968.0
1.10500 12559621120.0
1.11500 11997591552.0
1.12500 11817254912.0
1.13500 11382908928.0
1.14500 10944689152.0
1.15500 10851549184.0
1.16500 10434055168.0
1.17500 9956145152.0
1.18500 9738245120.0
1.19500 9417653248.0
1.20500 9037050880.0
1.21500 8588999680.0
1.22500 8601950208.0
1.23500 8437038592.0
1.24500 7931075072.0
1.25500 7714083840.0
1.26500 7555186688.0
1.27500 7269878272.0
1.28500 7037462016.0
1.29500 6797912576.0
1.30500 6793996800.0
1.31500 6505807872.0
1.32500 6283222528.0
1.33500 6277838336.0
1.34500 6123220480.0
1.35500 5891992576.0
1.36500 5592852992.0
1.37500 5482301952.0
1.38500 5426180096.0
1.39500 5173345280.0
1.40500 5020810752.0
1.41500 5018978816.0
1.42500 4892456448.0
1.43500 4669926912.0
1.44500 4488247808.0
1.45500 4502372864.0
1.46500 4477115904.0
1.47500 4222323200.0
1.48500 4119086080.0
1.49500 4082627072.0
1.50500 4008632320.0
1.51500 3823610880.0
1.52500 3667104768.0
1.53500 3656630016.0
1.54500 3579307008.0
1.55500 3377321472.0
1.56500 3321115904.0
1.57500 3327870720.0
1.58500 3339044608.0
1.59500 3144023808.0
1.60500 2978091776.0
1.61500 2967127552.0
1.62500 2936332544.0
1.63500 2758695168.0
1.64500 2673358592.0
1.65500 2729074944.0
1.66500 2765002240.0
1.67500 2658436608.0
1.68500 2511580160.0
1.69500 2556975360.0
1.70500 2554639872.0
1.71500 2419866624.0
1.72500 2280911616.0
1.73500 2254773504.0
1.74500 2284407808.0
1.75500 2185296128.0
1.76500 2082184704.0
1.77500 2081205760.0
1.78500 2124908928.0
1.79500 2085373312.0
1.80500 1951061376.0
1.81500 1931887872.0
1.82500 1958445440.0
1.83500 1917609216.0
1.84500 1818105984.0
1.85500 1775004160.0
1.86500 1843250944.0
1.87500 1831755264.0
1.88500 1719287936.0
1.89500 1671067648.0
1.90500 1722434560.0
1.91500 1735035008.0
1.92500 1637699456.0
1.93500 1551314048.0
1.94500 1591185280.0
1.95500 1616875776.0
1.96500 1542643456.0
1.97500 1460551424.0
1.98500 1501569408.0
1.99500 1564921472.0
2.00500 1511330944.0
2.01500 1402653568.0
2.02500 1400150272.0
2.03500 1459348736.0
2.04500 1428385920.0
2.05500 1335357696.0
2.06500 1309988992.0
2.07500 1389787392.0
2.08500 1413547904.0
2.09500 1354615040.0
2.10500 1317065344.0
2.11500 1403268864.0
2.12500 1473054080.0
2.13500 1401604608.0
2.14500 1350028032.0
2.15500 1424176512.0
2.16500 1507806720.0
2.17500 1452887680.0
2.18500 1388738432.0
2.19500 1472886272.0
2.20500 1663711488.0
2.21500 1746712576.0
2.22500 1724336512.0
2.23500 1817071104.0
2.24500 2050089088.0
2.25500 2224803840.0
2.26500 2263612160.0
2.27500 2582679808.0
2.28500 3239471360.0
2.29500 3986410240.0
2.30500 4816266240.0
2.31500 6908254208.0
2.32500 12041588736.0
2.33500 19900039168.0
2.34500 27970560000.0
2.35500 31830196224.0
2.36500 30067666944.0
2.37500 23748040704.0
2.38500 16185987072.0
2.39500 10246095872.0
2.40500 6855321088.0
2.41500 5178953216.0
2.42500 4044979456.0
2.43500 3223556608.0
2.44500 2576624384.0
2.45500 2135047936.0
2.46500 1833657216.0
2.47500 1564991488.0
2.48500 1345972352.0
2.49500 1187032832.0
2.50500 1040847616.0
2.51500 929988544.0
2.52500 826709312.0
2.53500 748742912.0
2.54500 687600512.0
2.55500 601690624.0
2.56500 558099392.0
2.57500 520983200.0
2.58500 471728032.0
2.59500 434569888.0
2.60500 400278656.0
2.61500 383147040.0
2.62500 367707616.0
2.63500 330465536.0
2.64500 318508384.0
2.65500 297307104.0
2.66500 286105120.0
2.67500 279266464.0
2.68500 252862784.0
2.69500 248681264.0
2.70500 238248464.0
2.71500 224109632.0
2.72500 215005392.0
2.73500 205887168.0
2.74500 198768800.0
2.75500 190168032.0
2.76500 179091904.0
2.77500 177875216.0
2.78500 169022704.0
2.79500 169707968.0
2.80500 161414864.0
2.81500 147793472.0
2.82500 147793472.0
2.83500 144423088.0
2.84500 142045648.0
2.85500 134521712.0
2.86500 130102456.0
2.87500 129109520.0
2.88500 122718376.0
2.89500 122718376.0
2.90500 117068432.0
2.91500 114145568.0
2.92500 112369472.0
2.93500 114816848.0
2.94500 116844672.0
2.95500 101978624.0
2.96500 101349296.0
2.97500 98482368.0
2.98500 92692576.0
2.99500 90538888.0
3.00500 90594832.0
3.01500 88231368.0
3.02500 89573928.0
3.03500 82036008.0
3.04500 80385776.0
3.05500 78232088.0
3.06500 76022464.0
3.07500 72120648.0
3.08500 69673272.0
3.09500 74442152.0
3.10500 71113728.0
3.11500 66596568.0
3.12500 64568744.0
3.13500 61743776.0
3.14500 61967536.0
3.15500 59464220.0
3.16500 55898044.0
3.17500 52793376.0
3.18500 52793376.0
3.19500 52471720.0
3.20500 50961340.0
3.21500 48416072.0
3.22500 48541936.0
3.23500 49674720.0
3.24500 46779824.0
3.25500 45479220.0
3.26500 46681928.0
3.27500 46206440.0
3.28500 44612152.0
3.29500 42486432.0
3.30500 41185824.0
3.31500 41437556.0
3.32500 43451396.0
3.33500 43633200.0
3.34500 40920112.0
3.35500 40556500.0
3.36500 39647476.0
3.37500 35927464.0
3.38500 35577840.0
3.39500 33046556.0
3.40500 32179484.0
3.41500 33871672.0
3.42500 31522190.0
3.43500 32221440.0
3.44500 31550160.0
3.45500 33745804.0
3.46500 32557080.0
3.47500 29802036.0
3.48500 29130756.0
3.49500 30962790.0
3.50500 28193760.0
3.51500 29130756.0
3.52500 27718270.0
3.53500 24152096.0
3.54500 27130900.0
3.55500 24655556.0
3.56500 22683670.0
3.57500 22110284.0
3.58500 22991340.0
3.59500 21257200.0
3.60500 19620956.0
3.61500 19341256.0
3.62500 20096444.0
3.63500 19481104.0
3.64500 20418100.0
3.65500 22725624.0
3.66500 22250136.0
3.67500 20418100.0
3.68500 18851780.0
3.69500 18879750.0
3.70500 18362304.0
3.71500 18907720.0
3.72500 19089524.0
3.73500 19970580.0
3.74500 18124560.0
3.75500 18390276.0
3.76500 15719140.0
3.77500 14600340.0
3.78500 14544400.0
3.79500 14726205.0
3.80500 14194775.0
3.81500 13817180.0
3.82500 14306655.0
3.83500 14446505.0
3.84500 13719285.0
3.85500 14726205.0
3.86500 14614325.0
3.87500 14754175.0
3.88500 15453425.0
3.89500 13103945.0
3.90500 13985000.0
3.91500 13733270.0
3.92500 14194775.0
3.93500 13551465.0
3.94500 12348755.0
3.95500 12586500.0
3.96500 10936270.0
3.97500 11523640.0
3.98500 11621535.0
3.99500 10656570.0
4.00500 11313865.0
4.01500 10348900.0
4.02500 11537625.0
4.03500 10684540.0
4.04500 10600630.0
4.05500 9467845.0
4.06500 9677620.0
4.07500 9971305.0
4.08500 9887395.0
4.09500 9537770.0
4.10500 8796565.0
4.11500 9999275.0
4.12500 9859425.0
4.13500 10614615.0
4.14500 8656715.0
4.15500 7565885.0
4.16500 7132350.0
4.17500 7160320.0
4.18500 7971450.0
4.19500 6544980.0
4.20500 6475055.0
4.21500 6768740.0
4.22500 6698815.0
4.23500 6698815.0
4.24500 6908590.0
4.25500 7971450.0
4.26500 7034455.0
4.27500 6167385.0
4.28500 6209340.0
4.29500 6111445.0
4.30500 6237310.0
4.31500 6279265.0
4.32500 5482120.0
4.33500 5160465.0
4.34500 5580015.0
4.35500 4782870.0
4.36500 4810840.0
4.37500 5817760.0
4.38500 5887685.0
4.39500 5440165.0
4.40500 5663925.0
4.41500 5062570.0
4.42500 4922720.0
4.43500 4684975.0
4.44500 4587080.0
4.45500 6447085.0
4.46500 7747690.0
4.47500 7565885.0
4.48500 7467990.0
4.49500 8237165.0
4.50500 10432810.0
4.51500 13747255.0
4.52500 23257056.0
4.53500 32473170.0
4.54500 42794100.0
4.55500 49101336.0
4.56500 44724032.0
4.57500 40626424.0
4.58500 30767000.0
4.59500 26823230.0
4.60500 23956304.0
4.61500 22376000.0
4.62500 20907576.0
4.63500 19047570.0
4.64500 15243650.0
4.65500 14516430.0
4.66500 13915075.0
4.67500 12544545.0
4.68500 12404695.0
4.69500 11691460.0
4.70500 12404695.0
4.71500 12097025.0
4.72500 10782435.0
4.73500 10195065.0
4.74500 9174160.0
4.75500 10348900.0
4.76500 10376870.0
4.77500 9369950.0
4.78500 9090250.0
4.79500 7523930.0
4.80500 8377015.0
4.81500 7565885.0
4.82500 7915510.0
4.83500 8978370.0
4.84500 8349045.0
4.85500 8223180.0
4.86500 8838520.0
4.87500 7412050.0
4.88500 7789645.0
4.89500 6503025.0
4.90500 7076410.0
4.91500 6265280.0
4.92500 5817760.0
4.93500 6740770.0
4.94500 5859715.0
4.95500 5957610.0
4.96500 6125430.0
4.97500 6628890.0
4.98500 5775805.0
4.99500 6377160.0
5.00500 5747835.0
5.01500 5188435.0
5.02500 6027535.0
5.03500 5971595.0
5.04500 6866635.0
5.05500 6880620.0
5.06500 6754755.0
5.07500 6726785.0
5.08500 5663925.0
5.09500 6517010.0
5.10500 6139415.0
5.11500 6111445.0
5.12500 5580015.0
5.13500 5006630.0
5.14500 5356255.0
5.15500 6433100.0
5.16500 5552045.0
5.17500 6712800.0
5.18500 6810695.0
5.19500 6391145.0
5.20500 6642875.0
5.21500 7160320.0
5.22500 6027535.0
5.23500 5747835.0
5.24500 6433100.0
5.25500 5733850.0
5.26500 5621970.0
5.27500 6237310.0
5.28500 6069490.0
5.29500 5132495.0
5.30500 6013550.0
5.31500 4992645.0
5.32500 5146480.0
5.33500 5216405.0
5.34500 5328285.0
5.35500 5062570.0
5.36500 6461070.0
5.37500 5342270.0
5.38500 4433245.0
5.39500 4810840.0
5.40500 5300315.0
5.41500 4880765.0
5.42500 5621970.0
5.43500 5496105.0
5.44500 5733850.0
5.45500 4670990.0
5.46500 4559110.0
5.47500 5048585.0
5.48500 5538060.0
5.49500 5132495.0
5.50500 4922720.0
5.51500 5761820.0
5.52500 5552045.0
5.53500 4740915.0
5.54500 5915655.0
5.55500 6936560.0
5.56500 6293250.0
5.57500 6558965.0
5.58500 6614905.0
5.59500 6698815.0
5.60500 6083475.0
5.61500 5873700.0
5.62500 5887685.0
5.63500 6069490.0
5.64500 6041520.0
5.65500 5118510.0
5.66500 4670990.0
5.67500 4489185.0
5.68500 4852795.0
5.69500 4796855.0
5.70500 4601065.0
5.71500 4810840.0
5.72500 4726930.0
5.73500 5384225.0
5.74500 5635955.0
5.75500 5062570.0
5.76500 4670990.0
5.77500 5915655.0
5.78500 6223325.0
5.79500 6083475.0
5.80500 5621970.0
5.81500 5272345.0
5.82500 5076555.0
5.83500 4405275.0
5.84500 5272345.0
5.85500 4936705.0
5.86500 4489185.0
5.87500 5635955.0
5.88500 4559110.0
5.89500 4237455.0
5.90500 4740915.0
5.91500 4726930.0
5.92500 3943770.0
5.93500 4489185.0
5.94500 4405275.0
5.95500 5412195.0
5.96500 4503170.0
5.97500 3831890.0
5.98500 4237455.0
5.99500 3859860.0
6.00500 4517155.0
6.01500 4740915.0
6.02500 4782870.0
6.03500 4209485.0
6.04500 4111590.0
6.05500 4852795.0
6.06500 4027680.0
6.07500 3929785.0
6.08500 4237455.0
6.09500 3524220.0
6.10500 4349335.0
6.11500 4041665.0
6.12500 6642875.0
6.13500 5691895.0
6.14500 5691895.0
6.15500 6013550.0
6.16500 6782725.0
6.17500 5538060.0
6.18500 5566030.0
6.19500 5076555.0
6.20500 5649940.0
6.21500 5733850.0
6.22500 4601065.0
6.23500 5468135.0
6.24500 4782870.0
6.25500 5356255.0
6.26500 4349335.0
6.27500 4824825.0
6.28500 5328285.0
6.29500 4279410.0
6.30500 3789935.0
6.31500 3747980.0
6.32500 4139560.0
6.33500 4139560.0
6.34500 3789935.0
6.35500 4657005.0
6.36500 4251440.0
6.37500 5747835.0
6.38500 6922575.0
6.39500 4908735.0
6.40500 6013550.0
6.41500 6489040.0
6.42500 5594000.0
6.43500 5398210.0
6.44500 4195500.0
6.45500 5244375.0
6.46500 4796855.0
6.47500 4181515.0
6.48500 3720010.0
6.49500 3692040.0
6.50500 3761965.0
6.51500 4041665.0
6.52500 3775950.0
6.53500 4335350.0
6.54500 4349335.0
6.55500 4167530.0
6.56500 4181515.0
6.57500 4237455.0
6.58500 3747980.0
6.59500 3929785.0
6.60500 4461215.0
6.61500 4824825.0
6.62500 3775950.0
6.63500 4489185.0
6.64500 4237455.0
6.65500 3384370.0
6.66500 3943770.0
6.67500 4545125.0
6.68500 5845730.0
6.69500 4391290.0
6.70500 4866780.0
6.71500 5006630.0
6.72500 5594000.0
6.73500 4894750.0
6.74500 4698960.0
6.75500 6335205.0
6.76500 7118365.0
6.77500 6908590.0
6.78500 5048585.0
6.79500 4782870.0
6.80500 5328285.0
6.81500 4181515.0
6.82500 3915800.0
6.83500 4195500.0
6.84500 3929785.0
6.85500 4293395.0
6.86500 4433245.0
6.87500 3747980.0
6.88500 3580160.0
6.89500 3859860.0
6.90500 6041520.0
6.91500 5202420.0
6.92500 4265425.0
6.93500 3244520.0
6.94500 3664070.0
6.95500 3300460.0
6.96500 3398355.0
6.97500 4587080.0
6.98500 4405275.0
6.99500 4908735.0
7.00500 3817905.0
7.01500 3789935.0
7.02500 3650085.0
7.03500 3160610.0
7.04500 3817905.0
7.05500 4223470.0
7.06500 4810840.0
7.07500 4684975.0
7.08500 4517155.0
7.09500 4111590.0
7.10500 3957755.0
7.11500 4111590.0
7.12500 3552190.0
7.13500 4181515.0
7.14500 3803920.0
7.15500 4041665.0
7.16500 4587080.0
7.17500 3510235.0
7.18500 3244520.0
7.19500 4670990.0
7.20500 4055650.0
7.21500 4447230.0
7.22500 3789935.0
7.23500 3901815.0
7.24500 3803920.0
7.25500 4433245.0
7.26500 4405275.0
7.27500 4265425.0
7.28500 3692040.0
7.29500 3678055.0
7.30500 3440310.0
7.31500 3706025.0
7.32500 3775950.0
7.33500 3650085.0
7.34500 3482265.0
7.35500 3873845.0
7.36500 2657150.0
7.37500 2671135.0
7.38500 2265570.0
7.39500 2880910.0
7.40500 2908880.0
7.41500 2237600.0
7.42500 2335495.0
7.43500 1860005.0
7.44500 2601210.0
7.45500 2964820.0
7.46500 3314445.0
7.47500 3608130.0
7.48500 3859860.0
7.49500 3775950.0
7.50500 3803920.0
7.51500 3915800.0
7.52500 3160610.0
7.53500 2643165.0
7.54500 3706025.0
7.55500 2922865.0
7.56500 3258505.0
7.57500 2223615.0
7.58500 1985870.0
7.59500 1860005.0
7.60500 2125720.0
7.61500 3817905.0
7.62500 3272490.0
7.63500 3566175.0
7.64500 2475345.0
7.65500 3664070.0
7.66500 3468280.0
7.67500 4824825.0
7.68500 5076555.0
7.69500 4293395.0
7.70500 3580160.0
7.71500 5775805.0
7.72500 7398065.0
7.73500 7034455.0
7.74500 7859570.0
7.75500 6181370.0
7.76500 5635955.0
7.77500 5454150.0
7.78500 4069635.0
7.79500 4181515.0
7.80500 4587080.0
7.81500 4293395.0
7.82500 5272345.0
7.83500 4950690.0
7.84500 5160465.0
7.85500 5440165.0
7.86500 4670990.0
7.87500 5342270.0
7.88500 6600920.0
7.89500 5943625.0
7.90500 4363320.0
7.91500 3342415.0
