0.00500 34386188.0
0.01500 37752952.0
0.02500 32774336.0
0.03500 25807648.0
0.04500 18188808.0
0.05500 10938868.0
0.06500 6407562.0
0.07500 4822926.0
0.08500 4755379.0
0.09500 5208021.0
0.10500 5697309.0
0.11500 6203056.0
0.12500 6759288.0
0.13500 7177904.0
0.14500 7630966.0
0.15500 8154107.0
0.16500 8640267.0
0.17500 9126519.0
0.18500 9609107.0
0.19500 10094455.0
0.20500 10517934.0
0.21500 10887708.0
0.22500 11335739.0
0.23500 11785422.0
0.24500 12214524.0
0.25500 12599384.0
0.26500 12962115.0
0.27500 13406538.0
0.28500 13827205.0
0.29500 14226342.0
0.30500 14597846.0
0.31500 14974978.0
0.32500 15291709.0
0.33500 15664809.0
0.34500 15936958.0
0.35500 16427248.0
0.36500 16798564.0
0.37500 17144268.0
0.38500 17511984.0
0.39500 17788216.0
0.40500 18060520.0
0.41500 18176344.0
0.42500 17715558.0
0.43500 15516590.0
0.44500 11767054.0
0.45500 8410197.0
0.46500 5991467.0
0.47500 4414818.0
0.48500 3500248.0
0.49500 3057853.0
0.50500 2752738.0
0.51500 2392285.0
0.52500 2008335.0
0.53500 1685522.0
0.54500 1451389.0
0.55500 1324313.0
0.56500 1246444.0
0.57500 1172503.0
0.58500 1084026.0
0.59500 972980.0
0.60500 857326.0
0.61500 755561.0
0.62500 675969.0
0.63500 623338.0
0.64500 593158.0
0.65500 572170.0
0.66500 551919.0
0.67500 520554.0
0.68500 482353.0
0.69500 438300.0
0.70500 397392.0
0.71500 358702.0
0.72500 332886.0
0.73500 314353.0
0.74500 301807.0
0.75500 294752.0
0.76500 286191.0
0.77500 276241.0
0.78500 259719.0
0.79500 242078.0
0.80500 224903.0
0.81500 204352.0
0.82500 188639.0
0.83500 177972.0
0.84500 171066.0
0.85500 167615.0
0.86500 164635.0
0.87500 159631.0
0.88500 153878.0
0.89500 147994.0
0.90500 138466.0
0.91500 128417.0
0.92500 117856.0
0.93500 110888.0
0.94500 104402.0
0.95500 100932.0
0.96500 97942.0
0.97500 96857.0
0.98500 97218.0
0.99500 94766.0
1.00500 91097.0
1.01500 85935.0
1.02500 79637.0
1.03500 75067.0
1.04500 70050.0
1.05500 65690.0
1.06500 63770.0
1.07500 61885.0
1.08500 61088.0
1.09500 60950.0
1.10500 60050.0
1.11500 59131.0
1.12500 57020.0
1.13500 53935.0
1.14500 50902.0
1.15500 47175.0
1.16500 44314.0
1.17500 41746.0
1.18500 40576.0
1.19500 40174.0
1.20500 39449.0
1.21500 39375.0
1.22500 38942.0
1.23500 38681.0
1.24500 37714.0
1.25500 35755.0
1.26500 33563.0
1.27500 31132.0
1.28500 29587.0
1.29500 28430.0
1.30500 27214.0
1.31500 26790.0
1.32500 26651.0
1.33500 26578.0
1.34500 26627.0
1.35500 26462.0
1.36500 25340.0
1.37500 24127.0
1.38500 22398.0
1.39500 21473.0
1.40500 20421.0
1.41500 19336.0
1.42500 18480.0
1.43500 18106.0
1.44500 18469.0
1.45500 18147.0
1.46500 18054.0
1.47500 18168.0
1.48500 18155.0
1.49500 17060.0
1.50500 16096.0
1.51500 15176.0
1.52500 14231.0
1.53500 13493.0
1.54500 12923.0
1.55500 12694.0
1.56500 12804.0
1.57500 12775.0
1.58500 12481.0
1.59500 13020.0
1.60500 13043.0
1.61500 12074.0
1.62500 11540.0
1.63500 11016.0
1.64500 10359.0
1.65500 9954.0
1.66500 9358.0
1.67500 9135.0
1.68500 8983.0
1.69500 9161.0
1.70500 9106.0
1.71500 9267.0
1.72500 9224.0
1.73500 8909.0
1.74500 8546.0
1.75500 8308.0
1.76500 7662.0
1.77500 7181.0
1.78500 7029.0
1.79500 6831.0
1.80500 6735.0
1.81500 6723.0
1.82500 6821.0
1.83500 6757.0
1.84500 6712.0
1.85500 6662.0
1.86500 6480.0
1.87500 6428.0
1.88500 5971.0
1.89500 5723.0
1.90500 5357.0
1.91500 5180.0
1.92500 4892.0
1.93500 4984.0
1.94500 5091.0
1.95500 5098.0
1.96500 4930.0
1.97500 5038.0
1.98500 5073.0
1.99500 4778.0
2.00500 4671.0
2.01500 4248.0
2.02500 4129.0
2.03500 3894.0
2.04500 3656.0
2.05500 3706.0
2.06500 3749.0
2.07500 3608.0
2.08500 3824.0
2.09500 3949.0
2.10500 3756.0
2.11500 3687.0
2.12500 3603.0
2.13500 3446.0
2.14500 3268.0
2.15500 3027.0
2.16500 2987.0
2.17500 2914.0
2.18500 2721.0
2.19500 2853.0
2.20500 2868.0
2.21500 2828.0
2.22500 2836.0
2.23500 2773.0
2.24500 2805.0
2.25500 2675.0
2.26500 2524.0
2.27500 2449.0
2.28500 2276.0
2.29500 2270.0
2.30500 2265.0
2.31500 2154.0
2.32500 2240.0
2.33500 2265.0
2.34500 2222.0
2.35500 2308.0
2.36500 2144.0
2.37500 2270.0
2.38500 2122.0
2.39500 1968.0
2.40500 1851.0
2.41500 1720.0
2.42500 1733.0
2.43500 1749.0
2.44500 1693.0
2.45500 1674.0
2.46500 1772.0
2.47500 1839.0
2.48500 1802.0
2.49500 1636.0
2.50500 1664.0
2.51500 1634.0
2.52500 1520.0
2.53500 1453.0
2.54500 1382.0
2.55500 1341.0
2.56500 1292.0
2.57500 1266.0
2.58500 1338.0
2.59500 1391.0
2.60500 1414.0
2.61500 1369.0
2.62500 1396.0
2.63500 1336.0
2.64500 1237.0
2.65500 1175.0
2.66500 1157.0
2.67500 1187.0
2.68500 1128.0
2.69500 1128.0
2.70500 1067.0
2.71500 1048.0
2.72500 1141.0
2.73500 1131.0
2.74500 1113.0
2.75500 1098.0
2.76500 1036.0
2.77500 1018.0
2.78500 957.0
2.79500 1011.0
2.80500 866.0
2.81500 887.0
2.82500 853.0
2.83500 861.0
2.84500 915.0
2.85500 878.0
2.86500 934.0
2.87500 939.0
2.88500 948.0
2.89500 874.0
2.90500 807.0
2.91500 783.0
2.92500 746.0
2.93500 704.0
2.94500 717.0
2.95500 695.0
2.96500 759.0
2.97500 663.0
2.98500 773.0
2.99500 824.0
3.00500 787.0
3.01500 747.0
3.02500 756.0
3.03500 711.0
3.04500 669.0
3.05500 622.0
3.06500 638.0
3.07500 541.0
3.08500 571.0
3.09500 624.0
3.10500 593.0
3.11500 610.0
3.12500 572.0
3.13500 632.0
3.14500 594.0
3.15500 623.0
3.16500 585.0
3.17500 551.0
3.18500 456.0
3.19500 540.0
3.20500 508.0
3.21500 496.0
3.22500 493.0
3.23500 496.0
3.24500 514.0
3.25500 572.0
3.26500 524.0
3.27500 526.0
3.28500 477.0
3.29500 469.0
3.30500 419.0
3.31500 396.0
3.32500 432.0
3.33500 458.0
3.34500 363.0
3.35500 423.0
3.36500 390.0
3.37500 462.0
3.38500 474.0
3.39500 428.0
3.40500 418.0
3.41500 393.0
3.42500 354.0
3.43500 344.0
3.44500 342.0
3.45500 328.0
3.46500 318.0
3.47500 350.0
3.48500 358.0
3.49500 376.0
3.50500 394.0
3.51500 352.0
3.52500 347.0
3.53500 305.0
3.54500 406.0
3.55500 329.0
3.56500 257.0
3.57500 256.0
3.58500 205.0
3.59500 245.0
3.60500 240.0
3.61500 296.0
3.62500 294.0
3.63500 342.0
3.64500 340.0
3.65500 284.0
3.66500 305.0
3.67500 278.0
3.68500 275.0
3.69500 234.0
3.70500 255.0
3.71500 256.0
3.72500 233.0
3.73500 241.0
3.74500 256.0
3.75500 230.0
3.76500 266.0
3.77500 269.0
3.78500 244.0
3.79500 230.0
3.80500 257.0
3.81500 230.0
3.82500 220.0
3.83500 247.0
3.84500 219.0
3.85500 223.0
3.86500 275.0
3.87500 275.0
3.88500 239.0
3.89500 239.0
3.90500 207.0
3.91500 234.0
3.92500 198.0
3.93500 204.0
3.94500 199.0
3.95500 199.0
3.96500 220.0
3.97500 227.0
3.98500 208.0
3.99500 276.0
4.00500 221.0
4.01500 186.0
4.02500 195.0
4.03500 191.0
4.04500 180.0
4.05500 197.0
4.06500 190.0
4.07500 207.0
4.08500 182.0
4.09500 178.0
4.10500 212.0
4.11500 194.0
4.12500 188.0
4.13500 193.0
4.14500 183.0
4.15500 185.0
4.16500 222.0
4.17500 224.0
4.18500 217.0
4.19500 186.0
4.20500 178.0
4.21500 200.0
4.22500 175.0
4.23500 187.0
4.24500 160.0
4.25500 143.0
4.26500 176.0
4.27500 159.0
4.28500 168.0
4.29500 165.0
4.30500 254.0
4.31500 232.0
4.32500 242.0
4.33500 212.0
4.34500 183.0
4.35500 181.0
4.36500 202.0
4.37500 190.0
4.38500 145.0
4.39500 146.0
4.40500 208.0
4.41500 241.0
4.42500 140.0
4.43500 147.0
4.44500 125.0
4.45500 157.0
4.46500 135.0
4.47500 145.0
4.48500 172.0
4.49500 135.0
4.50500 129.0
4.51500 122.0
4.52500 173.0
4.53500 198.0
4.54500 186.0
4.55500 155.0
4.56500 153.0
4.57500 139.0
4.58500 147.0
4.59500 123.0
4.60500 110.0
4.61500 139.0
4.62500 144.0
4.63500 149.0
4.64500 133.0
4.65500 153.0
4.66500 147.0
4.67500 160.0
4.68500 120.0
4.69500 111.0
4.70500 141.0
4.71500 102.0
4.72500 131.0
4.73500 137.0
4.74500 129.0
4.75500 151.0
4.76500 160.0
4.77500 138.0
4.78500 152.0
4.79500 178.0
4.80500 141.0
4.81500 146.0
4.82500 154.0
4.83500 144.0
4.84500 163.0
4.85500 175.0
4.86500 172.0
4.87500 206.0
4.88500 179.0
4.89500 209.0
4.90500 165.0
4.91500 170.0
4.92500 149.0
4.93500 165.0
4.94500 108.0
4.95500 165.0
4.96500 136.0
4.97500 131.0
4.98500 173.0
4.99500 189.0
5.00500 213.0
5.01500 128.0
5.02500 161.0
5.03500 193.0
5.04500 201.0
5.05500 139.0
5.06500 180.0
5.07500 134.0
5.08500 146.0
5.09500 153.0
5.10500 161.0
5.11500 142.0
5.12500 155.0
5.13500 144.0
5.14500 103.0
5.15500 101.0
5.16500 137.0
5.17500 121.0
5.18500 189.0
5.19500 246.0
5.20500 219.0
5.21500 209.0
5.22500 172.0
5.23500 124.0
5.24500 117.0
5.25500 92.0
5.26500 89.0
5.27500 123.0
5.28500 122.0
5.29500 106.0
5.30500 133.0
5.31500 92.0
5.32500 87.0
5.33500 116.0
5.34500 112.0
5.35500 96.0
5.36500 109.0
5.37500 83.0
5.38500 107.0
5.39500 132.0
5.40500 107.0
5.41500 113.0
5.42500 109.0
5.43500 87.0
5.44500 80.0
5.45500 82.0
5.46500 113.0
5.47500 126.0
5.48500 147.0
5.49500 110.0
5.50500 134.0
5.51500 130.0
5.52500 160.0
5.53500 115.0
5.54500 144.0
5.55500 111.0
5.56500 116.0
5.57500 152.0
5.58500 125.0
5.59500 90.0
5.60500 85.0
5.61500 152.0
5.62500 151.0
5.63500 174.0
5.64500 136.0
5.65500 164.0
5.66500 132.0
5.67500 109.0
5.68500 83.0
5.69500 71.0
5.70500 96.0
5.71500 47.0
5.72500 73.0
5.73500 76.0
5.74500 78.0
5.75500 99.0
5.76500 66.0
5.77500 59.0
5.78500 58.0
5.79500 68.0
5.80500 65.0
5.81500 73.0
5.82500 82.0
5.83500 87.0
5.84500 81.0
5.85500 67.0
5.86500 47.0
5.87500 61.0
5.88500 78.0
5.89500 61.0
5.90500 78.0
5.91500 63.0
5.92500 71.0
5.93500 70.0
5.94500 91.0
5.95500 119.0
5.96500 98.0
5.97500 82.0
5.98500 66.0
5.99500 81.0
6.00500 105.0
6.01500 84.0
6.02500 57.0
6.03500 86.0
6.04500 78.0
6.05500 70.0
6.06500 56.0
6.07500 74.0
6.08500 84.0
6.09500 63.0
6.10500 67.0
6.11500 51.0
6.12500 48.0
6.13500 54.0
6.14500 56.0
6.15500 63.0
6.16500 58.0
6.17500 36.0
6.18500 46.0
6.19500 48.0
6.20500 53.0
6.21500 61.0
6.22500 72.0
6.23500 68.0
6.24500 70.0
6.25500 81.0
6.26500 53.0
6.27500 70.0
6.28500 65.0
6.29500 78.0
6.30500 80.0
6.31500 69.0
6.32500 76.0
6.33500 149.0
6.34500 120.0
6.35500 104.0
6.36500 109.0
6.37500 117.0
6.38500 84.0
6.39500 80.0
6.40500 78.0
6.41500 70.0
6.42500 70.0
6.43500 48.0
6.44500 65.0
6.45500 82.0
6.46500 86.0
6.47500 90.0
6.48500 107.0
6.49500 152.0
6.50500 128.0
6.51500 72.0
6.52500 90.0
6.53500 70.0
6.54500 75.0
6.55500 82.0
6.56500 62.0
6.57500 47.0
6.58500 48.0
6.59500 68.0
6.60500 75.0
6.61500 84.0
6.62500 101.0
6.63500 80.0
6.64500 60.0
6.65500 54.0
6.66500 65.0
6.67500 45.0
6.68500 64.0
6.69500 67.0
6.70500 66.0
6.71500 53.0
6.72500 27.0
6.73500 41.0
6.74500 52.0
6.75500 60.0
6.76500 59.0
6.77500 56.0
6.78500 57.0
6.79500 57.0
6.80500 37.0
6.81500 45.0
6.82500 51.0
6.83500 43.0
6.84500 62.0
6.85500 52.0
6.86500 45.0
6.87500 43.0
6.88500 48.0
6.89500 29.0
6.90500 44.0
6.91500 44.0
6.92500 49.0
6.93500 43.0
6.94500 55.0
6.95500 43.0
6.96500 67.0
6.97500 42.0
6.98500 71.0
6.99500 56.0
7.00500 52.0
7.01500 53.0
7.02500 44.0
7.03500 53.0
7.04500 33.0
7.05500 48.0
7.06500 46.0
7.07500 46.0
7.08500 40.0
7.09500 26.0
7.10500 33.0
7.11500 41.0
7.12500 46.0
7.13500 39.0
7.14500 42.0
7.15500 46.0
7.16500 54.0
7.17500 56.0
7.18500 70.0
7.19500 33.0
7.20500 60.0
7.21500 59.0
7.22500 52.0
7.23500 57.0
7.24500 79.0
7.25500 79.0
7.26500 68.0
7.27500 57.0
7.28500 42.0
7.29500 64.0
7.30500 69.0
7.31500 65.0
7.32500 71.0
7.33500 67.0
7.34500 49.0
7.35500 46.0
7.36500 37.0
7.37500 35.0
7.38500 45.0
7.39500 38.0
7.40500 45.0
7.41500 46.0
7.42500 62.0
7.43500 50.0
7.44500 58.0
7.45500 47.0
7.46500 39.0
7.47500 40.0
7.48500 28.0
7.49500 37.0
7.50500 29.0
7.51500 61.0
7.52500 37.0
7.53500 42.0
7.54500 34.0
7.55500 35.0
7.56500 28.0
7.57500 20.0
7.58500 26.0
7.59500 36.0
7.60500 42.0
7.61500 53.0
7.62500 50.0
7.63500 53.0
7.64500 70.0
7.65500 60.0
7.66500 64.0
7.67500 51.0
7.68500 54.0
7.69500 73.0
7.70500 74.0
7.71500 75.0
7.72500 59.0
7.73500 64.0
7.74500 72.0
7.75500 76.0
7.76500 77.0
7.77500 64.0
7.78500 75.0
7.79500 70.0
7.80500 70.0
7.81500 69.0
7.82500 80.0
7.83500 87.0
7.84500 46.0
7.85500 57.0
7.86500 48.0
7.87500 56.0
7.88500 55.0
7.89500 58.0
7.90500 55.0
7.91500 45.0
7.92500 67.0
7.93500 32.0
7.94500 39.0
7.95500 36.0
7.96500 51.0
7.97500 46.0
7.98500 52.0
7.99500 49.0
