0.00500 13507959.0
0.01500 14562760.0
0.02500 12065311.0
0.03500 8487765.0
0.04500 4778664.0
0.05500 1969183.0
0.06500 533491.0
0.07500 103871.0
0.08500 26987.0
0.09500 14693.0
0.10500 12320.0
0.11500 11997.0
0.12500 12421.0
0.13500 12971.0
0.14500 13262.0
0.15500 13702.0
0.16500 14261.0
0.17500 14780.0
0.18500 15817.0
0.19500 15831.0
0.20500 16963.0
0.21500 17786.0
0.22500 18597.0
0.23500 20107.0
0.24500 20337.0
0.25500 21302.0
0.26500 21724.0
0.27500 22302.0
0.28500 24344.0
0.29500 24711.0
0.30500 25365.0
0.31500 26265.0
0.32500 26690.0
0.33500 28919.0
0.34500 29230.0
0.35500 29913.0
0.36500 31916.0
0.37500 31210.0
0.38500 33616.0
0.39500 33228.0
0.40500 31364.0
0.41500 30537.0
0.42500 25771.0
0.43500 22822.0
0.44500 18459.0
0.45500 13678.0
0.46500 10506.0
0.47500 7360.0
0.48500 5452.0
0.49500 3924.0
0.50500 2820.0
0.51500 2210.0
0.52500 1817.0
0.53500 1639.0
0.54500 1611.0
0.55500 1362.0
0.56500 1483.0
0.57500 1540.0
0.58500 1617.0
0.59500 1813.0
0.60500 1677.0
0.61500 1884.0
0.62500 2085.0
0.63500 2099.0
0.64500 2382.0
0.65500 2464.0
0.66500 2697.0
0.67500 3094.0
0.68500 2961.0
0.69500 3391.0
0.70500 3407.0
0.71500 3601.0
0.72500 4110.0
0.73500 3864.0
0.74500 4351.0
0.75500 4549.0
0.76500 4314.0
0.77500 5135.0
0.78500 4794.0
0.79500 5263.0
0.80500 5385.0
0.81500 5359.0
0.82500 5762.0
0.83500 5377.0
0.84500 5661.0
0.85500 5959.0
0.86500 5523.0
0.87500 6093.0
0.88500 5714.0
0.89500 5642.0
0.90500 6026.0
0.91500 5451.0
0.92500 5735.0
0.93500 5607.0
0.94500 5272.0
0.95500 5542.0
0.96500 5257.0
0.97500 5031.0
0.98500 4990.0
0.99500 4648.0
1.00500 4628.0
1.01500 4527.0
1.02500 4349.0
1.03500 4175.0
1.04500 3823.0
1.05500 3895.0
1.06500 3641.0
1.07500 3380.0
1.08500 3355.0
1.09500 2897.0
1.10500 2944.0
1.11500 2797.0
1.12500 2624.0
1.13500 2431.0
1.14500 2199.0
1.15500 2236.0
1.16500 2183.0
1.17500 1997.0
1.18500 1986.0
1.19500 1738.0
1.20500 1705.0
1.21500 1689.0
1.22500 1509.0
1.23500 1692.0
1.24500 1509.0
1.25500 1629.0
1.26500 1661.0
1.27500 1559.0
1.28500 1588.0
1.29500 1610.0
1.30500 1623.0
1.31500 1711.0
1.32500 1680.0
1.33500 1825.0
1.34500 1767.0
1.35500 1821.0
1.36500 2016.0
1.37500 1979.0
1.38500 2016.0
1.39500 2140.0
1.40500 2213.0
1.41500 2306.0
1.42500 2367.0
1.43500 2328.0
1.44500 2385.0
1.45500 2365.0
1.46500 2492.0
1.47500 2458.0
1.48500 2478.0
1.49500 2734.0
1.50500 2593.0
1.51500 2565.0
1.52500 2686.0
1.53500 2647.0
1.54500 2646.0
1.55500 2570.0
1.56500 2678.0
1.57500 2720.0
1.58500 2698.0
1.59500 2717.0
1.60500 2672.0
1.61500 2518.0
1.62500 2633.0
1.63500 2461.0
1.64500 2551.0
1.65500 2529.0
1.66500 2357.0
1.67500 2317.0
1.68500 2277.0
1.69500 2186.0
1.70500 2082.0
1.71500 1906.0
1.72500 2079.0
1.73500 1840.0
1.74500 1830.0
1.75500 1772.0
1.76500 1594.0
1.77500 1688.0
1.78500 1600.0
1.79500 1574.0
1.80500 1508.0
1.81500 1361.0
1.82500 1353.0
1.83500 1317.0
1.84500 1192.0
1.85500 1230.0
1.86500 1088.0
1.87500 1068.0
1.88500 1054.0
1.89500 986.0
1.90500 962.0
1.91500 959.0
1.92500 853.0
1.93500 884.0
1.94500 768.0
1.95500 838.0
1.96500 729.0
1.97500 782.0
1.98500 794.0
1.99500 745.0
2.00500 708.0
2.01500 728.0
2.02500 721.0
2.03500 720.0
2.04500 747.0
2.05500 682.0
2.06500 716.0
2.07500 739.0
2.08500 695.0
2.09500 761.0
2.10500 818.0
2.11500 781.0
2.12500 813.0
2.13500 836.0
2.14500 832.0
2.15500 778.0
2.16500 776.0
2.17500 733.0
2.18500 859.0
2.19500 906.0
2.20500 829.0
2.21500 867.0
2.22500 819.0
2.23500 810.0
2.24500 812.0
2.25500 868.0
2.26500 802.0
2.27500 838.0
2.28500 808.0
2.29500 818.0
2.30500 841.0
2.31500 793.0
2.32500 838.0
2.33500 781.0
2.34500 825.0
2.35500 771.0
2.36500 775.0
2.37500 747.0
2.38500 722.0
2.39500 772.0
2.40500 740.0
2.41500 713.0
2.42500 655.0
2.43500 709.0
2.44500 664.0
2.45500 615.0
2.46500 631.0
2.47500 608.0
2.48500 600.0
2.49500 596.0
2.50500 566.0
2.51500 557.0
2.52500 552.0
2.53500 503.0
2.54500 482.0
2.55500 465.0
2.56500 468.0
2.57500 452.0
2.58500 409.0
2.59500 376.0
2.60500 414.0
2.61500 402.0
2.62500 381.0
2.63500 397.0
2.64500 339.0
2.65500 377.0
2.66500 383.0
2.67500 320.0
2.68500 301.0
2.69500 339.0
2.70500 328.0
2.71500 313.0
2.72500 321.0
2.73500 317.0
2.74500 295.0
2.75500 284.0
2.76500 313.0
2.77500 288.0
2.78500 281.0
2.79500 257.0
2.80500 296.0
2.81500 273.0
2.82500 264.0
2.83500 284.0
2.84500 302.0
2.85500 287.0
2.86500 299.0
2.87500 295.0
2.88500 259.0
2.89500 265.0
2.90500 238.0
2.91500 253.0
2.92500 249.0
2.93500 305.0
2.94500 306.0
2.95500 276.0
2.96500 302.0
2.97500 275.0
2.98500 256.0
2.99500 229.0
3.00500 256.0
3.01500 269.0
3.02500 238.0
3.03500 212.0
3.04500 230.0
3.05500 228.0
3.06500 212.0
3.07500 249.0
3.08500 254.0
3.09500 269.0
3.10500 265.0
3.11500 255.0
3.12500 233.0
3.13500 214.0
3.14500 210.0
3.15500 190.0
3.16500 202.0
3.17500 241.0
3.18500 224.0
3.19500 228.0
3.20500 263.0
3.21500 263.0
3.22500 224.0
3.23500 240.0
3.24500 222.0
3.25500 209.0
3.26500 172.0
3.27500 193.0
3.28500 206.0
3.29500 189.0
3.30500 186.0
3.31500 202.0
3.32500 149.0
3.33500 141.0
3.34500 156.0
3.35500 140.0
3.36500 154.0
3.37500 123.0
3.38500 135.0
3.39500 155.0
3.40500 125.0
3.41500 126.0
3.42500 144.0
3.43500 158.0
3.44500 142.0
3.45500 153.0
3.46500 142.0
3.47500 145.0
3.48500 129.0
3.49500 106.0
3.50500 120.0
3.51500 119.0
3.52500 126.0
3.53500 132.0
3.54500 108.0
3.55500 99.0
3.56500 111.0
3.57500 113.0
3.58500 108.0
3.59500 105.0
3.60500 110.0
3.61500 119.0
3.62500 100.0
3.63500 110.0
3.64500 104.0
3.65500 100.0
3.66500 82.0
3.67500 81.0
3.68500 76.0
3.69500 70.0
3.70500 57.0
3.71500 79.0
3.72500 74.0
3.73500 73.0
3.74500 72.0
3.75500 69.0
3.76500 86.0
3.77500 77.0
3.78500 101.0
3.79500 83.0
3.80500 79.0
3.81500 87.0
3.82500 90.0
3.83500 81.0
3.84500 105.0
3.85500 84.0
3.86500 99.0
3.87500 100.0
3.88500 81.0
3.89500 90.0
3.90500 89.0
3.91500 107.0
3.92500 84.0
3.93500 103.0
3.94500 102.0
3.95500 101.0
3.96500 121.0
3.97500 113.0
3.98500 96.0
3.99500 97.0
4.00500 106.0
4.01500 120.0
4.02500 97.0
4.03500 103.0
4.04500 114.0
4.05500 102.0
4.06500 88.0
4.07500 110.0
4.08500 75.0
4.09500 106.0
4.10500 81.0
4.11500 109.0
4.12500 96.0
4.13500 106.0
4.14500 102.0
4.15500 85.0
4.16500 82.0
4.17500 84.0
4.18500 79.0
4.19500 89.0
4.20500 76.0
4.21500 65.0
4.22500 81.0
4.23500 67.0
4.24500 98.0
4.25500 86.0
4.26500 87.0
4.27500 85.0
4.28500 77.0
4.29500 57.0
4.30500 49.0
4.31500 51.0
4.32500 51.0
4.33500 57.0
4.34500 58.0
4.35500 68.0
4.36500 78.0
4.37500 129.0
4.38500 136.0
4.39500 101.0
4.40500 88.0
4.41500 91.0
4.42500 121.0
4.43500 79.0
4.44500 58.0
4.45500 74.0
4.46500 62.0
4.47500 53.0
4.48500 59.0
4.49500 66.0
4.50500 54.0
