0.00500 39607836.0
0.01500 43647672.0
0.02500 33941116.0
0.03500 20884360.0
0.04500 11176783.0
0.05500 5777527.0
0.06500 3906400.0
0.07500 3735610.0
0.08500 4206398.0
0.09500 4727334.0
0.10500 5192327.0
0.11500 5829570.0
0.12500 6237928.0
0.13500 6751156.0
0.14500 7331015.0
0.15500 7732008.0
0.16500 8426973.0
0.17500 8820971.0
0.18500 9158026.0
0.19500 9842244.0
0.20500 10185764.0
0.21500 10761961.0
0.22500 11294447.0
0.23500 11540495.0
0.24500 12083960.0
0.25500 12402584.0
0.26500 12907155.0
0.27500 13460210.0
0.28500 13602352.0
0.29500 14100931.0
0.30500 14444881.0
0.31500 14945917.0
0.32500 15506858.0
0.33500 15715344.0
0.34500 16223328.0
0.35500 16550783.0
0.36500 16915340.0
0.37500 17441808.0
0.38500 17437792.0
0.39500 17970192.0
0.40500 18375240.0
0.41500 18513460.0
0.42500 19008018.0
0.43500 18928672.0
0.44500 19271672.0
0.45500 19640128.0
0.46500 19716570.0
0.47500 20253136.0
0.48500 20299108.0
0.49500 20460932.0
0.50500 20795236.0
0.51500 20790588.0
0.52500 21041032.0
0.53500 20980712.0
0.54500 20647016.0
0.55500 20949868.0
0.56500 20951488.0
0.57500 21075616.0
0.58500 20875178.0
0.59500 20447860.0
0.60500 20521580.0
0.61500 20201118.0
0.62500 19911572.0
0.63500 19429954.0
0.64500 18683544.0
0.65500 18239908.0
0.66500 17400856.0
0.67500 16452886.0
0.68500 15455546.0
0.69500 14056092.0
0.70500 13001171.0
0.71500 11793921.0
0.72500 10522251.0
0.73500 9519270.0
0.74500 8602622.0
0.75500 7890980.0
0.76500 7232533.0
0.77500 6659048.0
0.78500 6204828.0
0.79500 5708236.0
0.80500 5362272.0
0.81500 5143580.0
0.82500 4891209.0
0.83500 4728500.0
0.84500 4490672.0
0.85500 4275970.0
0.86500 4179915.0
0.87500 4096729.0
0.88500 4133591.0
0.89500 4199625.0
0.90500 4290439.0
0.91500 4397929.0
0.92500 4394457.0
0.93500 4557285.0
0.94500 4898168.0
0.95500 5537463.0
0.96500 6532180.0
0.97500 7667021.0
0.98500 8914087.0
0.99500 9911475.0
1.00500 10556797.0
1.01500 10935261.0
1.02500 10797342.0
1.03500 10268556.0
1.04500 9458984.0
1.05500 8356550.0
1.06500 7123152.0
1.07500 5708840.0
1.08500 4351355.0
1.09500 3165732.0
1.10500 2196734.0
1.11500 1553086.0
1.12500 1153815.0
1.13500 965062.0
1.14500 913377.0
1.15500 887485.0
1.16500 828845.0
1.17500 711230.0
1.18500 545437.0
1.19500 389409.0
1.20500 279684.0
1.21500 227555.0
1.22500 234182.0
1.23500 280421.0
1.24500 350682.0
1.25500 408551.0
1.26500 423750.0
1.27500 371753.0
1.28500 273716.0
1.29500 195512.0
1.30500 199910.0
1.31500 301245.0
1.32500 442257.0
1.33500 542041.0
1.34500 540366.0
1.35500 440876.0
1.36500 304008.0
1.37500 207089.0
1.38500 178539.0
1.39500 206844.0
1.40500 243745.0
1.41500 246235.0
1.42500 209763.0
1.43500 148378.0
1.44500 92361.0
1.45500 58081.0
1.46500 41857.0
1.47500 36553.0
1.48500 37963.0
1.49500 47351.0
1.50500 61846.0
1.51500 73549.0
1.52500 76165.0
1.53500 66472.0
1.54500 48672.0
1.55500 32943.0
1.56500 25201.0
1.57500 25022.0
1.58500 28975.0
1.59500 38244.0
1.60500 54082.0
1.61500 78671.0
1.62500 108967.0
1.63500 137106.0
1.64500 156001.0
1.65500 160733.0
1.66500 156967.0
1.67500 155000.0
1.68500 157638.0
1.69500 159799.0
1.70500 153720.0
1.71500 137885.0
1.72500 111747.0
1.73500 86279.0
1.74500 66197.0
1.75500 51890.0
1.76500 40613.0
1.77500 31699.0
1.78500 23561.0
1.79500 18097.0
1.80500 16455.0
1.81500 18327.0
1.82500 22184.0
1.83500 23300.0
1.84500 21253.0
1.85500 17692.0
1.86500 14588.0
1.87500 12633.0
1.88500 11746.0
1.89500 10180.0
1.90500 8322.0
1.91500 6834.0
1.92500 6675.0
1.93500 8390.0
1.94500 10508.0
1.95500 11683.0
1.96500 10607.0
1.97500 8467.0
1.98500 6436.0
1.99500 5332.0
2.00500 5321.0
2.01500 5055.0
2.02500 4358.0
2.03500 3571.0
2.04500 3715.0
2.05500 4729.0
2.06500 7112.0
2.07500 9515.0
2.08500 9666.0
2.09500 8023.0
2.10500 5189.0
2.11500 3628.0
2.12500 3005.0
2.13500 2996.0
2.14500 2918.0
2.15500 2587.0
2.16500 2789.0
2.17500 3691.0
2.18500 5502.0
2.19500 8276.0
2.20500 10715.0
2.21500 11214.0
2.22500 9014.0
2.23500 5952.0
2.24500 4522.0
2.25500 4764.0
2.26500 5094.0
2.27500 4995.0
2.28500 6168.0
2.29500 10177.0
2.30500 18373.0
2.31500 30232.0
2.32500 45787.0
2.33500 59840.0
2.34500 65283.0
2.35500 56362.0
2.36500 49185.0
2.37500 71510.0
2.38500 140684.0
2.39500 232266.0
2.40500 292317.0
2.41500 274429.0
2.42500 197386.0
2.43500 112215.0
2.44500 65615.0
2.45500 63559.0
2.46500 73496.0
2.47500 70854.0
2.48500 53167.0
2.49500 38548.0
2.50500 36946.0
2.51500 39791.0
2.52500 36233.0
2.53500 25442.0
2.54500 15434.0
2.55500 11304.0
2.56500 11406.0
2.57500 11637.0
2.58500 10132.0
2.59500 7891.0
2.60500 6087.0
2.61500 5146.0
2.62500 5811.0
2.63500 7714.0
2.64500 9720.0
2.65500 9686.0
2.66500 7531.0
2.67500 5127.0
2.68500 4267.0
2.69500 4420.0
2.70500 4819.0
2.71500 4416.0
2.72500 3649.0
2.73500 2943.0
2.74500 2897.0
2.75500 3173.0
2.76500 4263.0
2.77500 5194.0
2.78500 5491.0
2.79500 4361.0
2.80500 3076.0
2.81500 2327.0
2.82500 2284.0
2.83500 2397.0
2.84500 2379.0
2.85500 2148.0
2.86500 2076.0
2.87500 2165.0
2.88500 2477.0
2.89500 2775.0
2.90500 3077.0
2.91500 3019.0
2.92500 2538.0
2.93500 1798.0
2.94500 1505.0
2.95500 1383.0
2.96500 1465.0
2.97500 1397.0
2.98500 1327.0
2.99500 1235.0
3.00500 1262.0
3.01500 1279.0
3.02500 1319.0
3.03500 1309.0
3.04500 1373.0
3.05500 1979.0
3.06500 3432.0
3.07500 5393.0
3.08500 7201.0
3.09500 8910.0
3.10500 11163.0
3.11500 13677.0
3.12500 16658.0
3.13500 19133.0
3.14500 21217.0
3.15500 22539.0
3.16500 21401.0
3.17500 18806.0
3.18500 15516.0
3.19500 11940.0
3.20500 9073.0
3.21500 7006.0
3.22500 5738.0
3.23500 4677.0
3.24500 3680.0
3.25500 3497.0
3.26500 3882.0
3.27500 4966.0
3.28500 5570.0
3.29500 6213.0
3.30500 5884.0
3.31500 4847.0
3.32500 3774.0
3.33500 2799.0
3.34500 2427.0
3.35500 2509.0
3.36500 2350.0
3.37500 2289.0
3.38500 2427.0
3.39500 3059.0
3.40500 4226.0
3.41500 5174.0
3.42500 5502.0
3.43500 5235.0
3.44500 4376.0
3.45500 3344.0
3.46500 2966.0
3.47500 3779.0
3.48500 5553.0
3.49500 7756.0
3.50500 9056.0
3.51500 9121.0
3.52500 6979.0
3.53500 4716.0
3.54500 3006.0
3.55500 2498.0
3.56500 3155.0
3.57500 4135.0
3.58500 4747.0
3.59500 4358.0
3.60500 3724.0
3.61500 2903.0
3.62500 2147.0
3.63500 1532.0
3.64500 1144.0
3.65500 1046.0
3.66500 997.0
3.67500 1077.0
3.68500 1103.0
3.69500 1336.0
3.70500 1539.0
3.71500 1875.0
3.72500 1993.0
3.73500 1605.0
3.74500 1281.0
3.75500 971.0
3.76500 824.0
3.77500 674.0
3.78500 770.0
3.79500 1028.0
3.80500 1476.0
3.81500 1892.0
3.82500 2481.0
3.83500 3213.0
3.84500 3702.0
3.85500 4332.0
3.86500 4620.0
3.87500 4522.0
3.88500 4340.0
3.89500 4106.0
3.90500 3868.0
3.91500 3391.0
3.92500 2818.0
3.93500 2414.0
3.94500 1989.0
3.95500 1620.0
3.96500 1200.0
3.97500 1042.0
3.98500 924.0
3.99500 942.0
4.00500 872.0
4.01500 929.0
4.02500 935.0
4.03500 963.0
4.04500 968.0
4.05500 821.0
4.06500 796.0
4.07500 788.0
4.08500 688.0
4.09500 671.0
4.10500 639.0
4.11500 615.0
4.12500 618.0
4.13500 620.0
4.14500 627.0
4.15500 576.0
4.16500 521.0
4.17500 608.0
4.18500 543.0
4.19500 510.0
4.20500 491.0
4.21500 490.0
4.22500 512.0
4.23500 447.0
4.24500 388.0
4.25500 429.0
4.26500 396.0
4.27500 459.0
4.28500 411.0
4.29500 391.0
4.30500 392.0
4.31500 354.0
4.32500 379.0
4.33500 332.0
4.34500 391.0
4.35500 372.0
4.36500 322.0
4.37500 297.0
4.38500 341.0
4.39500 298.0
4.40500 330.0
4.41500 285.0
4.42500 241.0
4.43500 254.0
4.44500 268.0
4.45500 232.0
4.46500 213.0
4.47500 236.0
4.48500 272.0
4.49500 242.0
4.50500 249.0
4.51500 291.0
4.52500 368.0
4.53500 448.0
4.54500 387.0
4.55500 412.0
4.56500 505.0
4.57500 643.0
4.58500 1024.0
4.59500 1587.0
4.60500 2440.0
4.61500 3516.0
4.62500 4850.0
4.63500 5945.0
4.64500 5760.0
4.65500 4475.0
4.66500 3255.0
4.67500 2386.0
4.68500 2108.0
4.69500 2368.0
4.70500 3350.0
4.71500 3956.0
4.72500 3973.0
4.73500 3484.0
4.74500 3186.0
4.75500 3017.0
4.76500 2702.0
4.77500 2072.0
4.78500 1607.0
4.79500 1381.0
4.80500 1287.0
4.81500 1309.0
4.82500 1401.0
4.83500 1500.0
4.84500 1317.0
4.85500 1184.0
4.86500 1094.0
4.87500 1023.0
4.88500 818.0
4.89500 630.0
4.90500 589.0
4.91500 494.0
4.92500 436.0
4.93500 436.0
4.94500 384.0
4.95500 333.0
4.96500 318.0
4.97500 337.0
4.98500 323.0
4.99500 330.0
5.00500 301.0
5.01500 314.0
5.02500 307.0
5.03500 264.0
5.04500 194.0
5.05500 201.0
5.06500 199.0
5.07500 188.0
5.08500 181.0
5.09500 174.0
5.10500 182.0
5.11500 192.0
5.12500 159.0
5.13500 159.0
5.14500 180.0
5.15500 160.0
5.16500 132.0
5.17500 147.0
5.18500 153.0
5.19500 120.0
5.20500 126.0
5.21500 164.0
5.22500 142.0
5.23500 144.0
5.24500 129.0
5.25500 112.0
5.26500 126.0
5.27500 132.0
5.28500 151.0
5.29500 137.0
5.30500 142.0
5.31500 125.0
5.32500 190.0
5.33500 182.0
5.34500 199.0
5.35500 180.0
5.36500 220.0
5.37500 273.0
5.38500 278.0
5.39500 311.0
5.40500 334.0
5.41500 362.0
5.42500 353.0
5.43500 326.0
5.44500 337.0
5.45500 278.0
5.46500 246.0
5.47500 212.0
5.48500 181.0
5.49500 172.0
5.50500 171.0
5.51500 167.0
5.52500 148.0
5.53500 154.0
5.54500 188.0
5.55500 187.0
5.56500 185.0
5.57500 181.0
5.58500 165.0
5.59500 179.0
5.60500 155.0
5.61500 153.0
5.62500 140.0
5.63500 145.0
5.64500 144.0
5.65500 126.0
5.66500 164.0
5.67500 185.0
5.68500 187.0
5.69500 175.0
5.70500 173.0
5.71500 153.0
5.72500 179.0
5.73500 137.0
5.74500 148.0
5.75500 140.0
5.76500 156.0
5.77500 217.0
5.78500 199.0
5.79500 180.0
5.80500 162.0
5.81500 147.0
5.82500 119.0
5.83500 108.0
5.84500 145.0
5.85500 146.0
5.86500 152.0
5.87500 144.0
5.88500 158.0
5.89500 135.0
5.90500 152.0
5.91500 149.0
5.92500 159.0
5.93500 144.0
5.94500 181.0
5.95500 160.0
5.96500 150.0
5.97500 157.0
5.98500 137.0
5.99500 135.0
6.00500 145.0
6.01500 162.0
6.02500 137.0
6.03500 127.0
6.04500 156.0
6.05500 135.0
6.06500 173.0
6.07500 188.0
6.08500 215.0
6.09500 253.0
6.10500 241.0
6.11500 255.0
6.12500 231.0
6.13500 264.0
6.14500 232.0
6.15500 201.0
6.16500 195.0
6.17500 189.0
6.18500 166.0
6.19500 156.0
6.20500 154.0
6.21500 102.0
6.22500 138.0
6.23500 112.0
6.24500 118.0
6.25500 139.0
6.26500 124.0
6.27500 140.0
6.28500 121.0
6.29500 132.0
6.30500 121.0
6.31500 126.0
6.32500 113.0
6.33500 104.0
6.34500 101.0
6.35500 126.0
6.36500 129.0
6.37500 135.0
6.38500 123.0
6.39500 122.0
6.40500 109.0
6.41500 119.0
6.42500 142.0
6.43500 144.0
6.44500 135.0
6.45500 131.0
6.46500 131.0
6.47500 117.0
6.48500 127.0
6.49500 135.0
6.50500 122.0
6.51500 109.0
6.52500 92.0
6.53500 116.0
6.54500 105.0
6.55500 122.0
6.56500 87.0
6.57500 95.0
6.58500 94.0
6.59500 93.0
6.60500 96.0
6.61500 108.0
6.62500 109.0
6.63500 99.0
6.64500 110.0
6.65500 114.0
6.66500 93.0
6.67500 104.0
6.68500 90.0
6.69500 96.0
6.70500 83.0
6.71500 97.0
6.72500 86.0
6.73500 96.0
6.74500 114.0
6.75500 99.0
6.76500 73.0
6.77500 91.0
6.78500 97.0
6.79500 97.0
6.80500 72.0
6.81500 83.0
6.82500 99.0
6.83500 94.0
6.84500 113.0
6.85500 163.0
6.86500 192.0
6.87500 245.0
6.88500 301.0
6.89500 288.0
6.90500 283.0
6.91500 260.0
6.92500 228.0
6.93500 173.0
6.94500 172.0
6.95500 198.0
6.96500 196.0
6.97500 196.0
6.98500 215.0
6.99500 183.0
7.00500 156.0
7.01500 143.0
7.02500 128.0
7.03500 151.0
7.04500 126.0
7.05500 149.0
7.06500 111.0
7.07500 119.0
7.08500 163.0
7.09500 161.0
7.10500 142.0
7.11500 118.0
7.12500 121.0
7.13500 127.0
7.14500 131.0
7.15500 132.0
7.16500 127.0
7.17500 116.0
7.18500 138.0
7.19500 125.0
7.20500 132.0
7.21500 139.0
7.22500 150.0
7.23500 132.0
7.24500 137.0
7.25500 144.0
7.26500 133.0
7.27500 124.0
7.28500 131.0
7.29500 130.0
7.30500 128.0
7.31500 116.0
7.32500 150.0
7.33500 137.0
7.34500 134.0
7.35500 122.0
7.36500 119.0
7.37500 93.0
7.38500 113.0
7.39500 104.0
7.40500 92.0
7.41500 91.0
7.42500 104.0
7.43500 89.0
7.44500 101.0
7.45500 81.0
7.46500 116.0
7.47500 113.0
7.48500 116.0
7.49500 113.0
7.50500 117.0
7.51500 122.0
7.52500 125.0
7.53500 147.0
7.54500 130.0
7.55500 142.0
7.56500 120.0
7.57500 136.0
7.58500 142.0
7.59500 132.0
7.60500 119.0
7.61500 102.0
7.62500 135.0
7.63500 113.0
7.64500 110.0
7.65500 86.0
7.66500 100.0
7.67500 107.0
7.68500 109.0
7.69500 99.0
7.70500 85.0
7.71500 90.0
7.72500 117.0
7.73500 87.0
7.74500 89.0
7.75500 83.0
7.76500 91.0
7.77500 97.0
7.78500 104.0
7.79500 86.0
7.80500 77.0
7.81500 78.0
7.82500 87.0
7.83500 89.0
7.84500 96.0
7.85500 100.0
7.86500 112.0
7.87500 112.0
7.88500 90.0
7.89500 92.0
7.90500 157.0
7.91500 129.0
7.92500 151.0
7.93500 132.0
7.94500 112.0
7.95500 109.0
7.96500 142.0
7.97500 106.0
7.98500 106.0
7.99500 98.0
8.00500 114.0
8.01500 111.0
8.02500 105.0
8.03500 132.0
8.04500 106.0
8.05500 121.0
8.06500 91.0
8.07500 133.0
8.08500 108.0
8.09500 134.0
8.10500 131.0
8.11500 115.0
8.12500 114.0
8.13500 113.0
8.14500 114.0
8.15500 117.0
8.16500 104.0
8.17500 101.0
8.18500 88.0
8.19500 81.0
8.20500 83.0
8.21500 92.0
8.22500 93.0
8.23500 64.0
8.24500 83.0
8.25500 87.0
8.26500 103.0
8.27500 97.0
8.28500 125.0
8.29500 82.0
8.30500 102.0
8.31500 109.0
8.32500 91.0
8.33500 95.0
8.34500 98.0
8.35500 115.0
8.36500 133.0
8.37500 158.0
8.38500 180.0
8.39500 162.0
8.40500 136.0
8.41500 180.0
8.42500 145.0
8.43500 188.0
8.44500 155.0
8.45500 148.0
8.46500 158.0
8.47500 155.0
8.48500 145.0
8.49500 115.0
8.50500 118.0
8.51500 113.0
8.52500 120.0
8.53500 121.0
8.54500 116.0
8.55500 127.0
8.56500 115.0
8.57500 128.0
8.58500 150.0
8.59500 123.0
8.60500 125.0
8.61500 100.0
8.62500 86.0
8.63500 116.0
8.64500 83.0
8.65500 103.0
8.66500 115.0
8.67500 91.0
8.68500 90.0
8.69500 87.0
8.70500 110.0
8.71500 90.0
8.72500 101.0
8.73500 114.0
8.74500 117.0
8.75500 81.0
8.76500 98.0
8.77500 101.0
8.78500 88.0
8.79500 95.0
8.80500 76.0
8.81500 98.0
8.82500 66.0
8.83500 77.0
8.84500 92.0
8.85500 94.0
8.86500 95.0
8.87500 85.0
8.88500 96.0
8.89500 76.0
8.90500 71.0
8.91500 90.0
8.92500 82.0
8.93500 89.0
8.94500 82.0
8.95500 79.0
8.96500 67.0
8.97500 91.0
8.98500 88.0
8.99500 107.0
9.00500 95.0
9.01500 123.0
9.02500 110.0
9.03500 98.0
9.04500 102.0
9.05500 119.0
9.06500 93.0
9.07500 99.0
9.08500 95.0
9.09500 110.0
9.10500 96.0
9.11500 97.0
9.12500 88.0
9.13500 107.0
9.14500 82.0
9.15500 101.0
9.16500 78.0
9.17500 92.0
9.18500 79.0
9.19500 79.0
9.20500 72.0
9.21500 67.0
9.22500 59.0
9.23500 95.0
9.24500 57.0
9.25500 88.0
9.26500 102.0
9.27500 79.0
9.28500 74.0
9.29500 77.0
9.30500 70.0
9.31500 71.0
9.32500 79.0
9.33500 84.0
9.34500 83.0
9.35500 73.0
9.36500 93.0
9.37500 83.0
9.38500 79.0
9.39500 79.0
9.40500 108.0
9.41500 95.0
9.42500 127.0
9.43500 104.0
9.44500 90.0
9.45500 82.0
9.46500 63.0
9.47500 75.0
9.48500 84.0
9.49500 70.0
9.50500 67.0
9.51500 81.0
9.52500 61.0
9.53500 61.0
9.54500 86.0
9.55500 70.0
9.56500 87.0
9.57500 81.0
9.58500 90.0
9.59500 91.0
9.60500 104.0
9.61500 85.0
9.62500 105.0
9.63500 88.0
9.64500 105.0
9.65500 93.0
9.66500 97.0
9.67500 73.0
9.68500 80.0
9.69500 90.0
9.70500 60.0
9.71500 67.0
9.72500 70.0
9.73500 67.0
9.74500 97.0
9.75500 68.0
9.76500 70.0
9.77500 84.0
9.78500 87.0
9.79500 67.0
9.80500 72.0
9.81500 84.0
9.82500 72.0
9.83500 85.0
9.84500 69.0
9.85500 88.0
9.86500 110.0
9.87500 143.0
9.88500 158.0
9.89500 114.0
9.90500 96.0
9.91500 98.0
9.92500 111.0
9.93500 101.0
9.94500 77.0
9.95500 88.0
9.96500 99.0
9.97500 106.0
9.98500 101.0
9.99500 88.0
10.00500 93.0
10.01500 107.0
10.02500 105.0
10.03500 88.0
10.04500 90.0
10.05500 156.0
10.06500 171.0
10.07500 176.0
10.08500 161.0
10.09500 96.0
10.10500 88.0
10.11500 148.0
10.12500 109.0
10.13500 140.0
10.14500 157.0
10.15500 156.0
10.16500 174.0
10.17500 140.0
10.18500 156.0
10.19500 166.0
10.20500 137.0
10.21500 123.0
10.22500 137.0
10.23500 114.0
10.24500 139.0
10.25500 107.0
10.26500 113.0
10.27500 134.0
10.28500 180.0
10.29500 111.0
10.30500 126.0
10.31500 108.0
10.32500 113.0
10.33500 110.0
10.34500 103.0
10.35500 116.0
10.36500 106.0
10.37500 141.0
10.38500 86.0
10.39500 156.0
10.40500 112.0
10.41500 114.0
10.42500 113.0
10.43500 104.0
10.44500 88.0
10.45500 139.0
10.46500 148.0
10.47500 135.0
10.48500 137.0
10.49500 136.0
10.50500 132.0
10.51500 128.0
10.52500 135.0
10.53500 116.0
10.54500 112.0
10.55500 125.0
10.56500 123.0
10.57500 109.0
10.58500 98.0
10.59500 124.0
10.60500 120.0
10.61500 97.0
10.62500 98.0
10.63500 93.0
10.64500 105.0
10.65500 112.0
10.66500 108.0
10.67500 119.0
10.68500 145.0
10.69500 112.0
10.70500 93.0
10.71500 85.0
10.72500 107.0
10.73500 107.0
10.74500 150.0
10.75500 153.0
10.76500 164.0
10.77500 158.0
10.78500 156.0
10.79500 179.0
10.80500 191.0
10.81500 156.0
10.82500 158.0
10.83500 148.0
10.84500 130.0
10.85500 105.0
10.86500 103.0
10.87500 109.0
10.88500 95.0
10.89500 85.0
10.90500 97.0
10.91500 113.0
10.92500 123.0
10.93500 137.0
10.94500 123.0
10.95500 81.0
10.96500 88.0
10.97500 107.0
10.98500 131.0
10.99500 112.0
11.00500 114.0
11.01500 121.0
11.02500 112.0
11.03500 121.0
11.04500 100.0
11.05500 107.0
11.06500 75.0
11.07500 88.0
11.08500 87.0
11.09500 104.0
11.10500 100.0
11.11500 83.0
11.12500 84.0
11.13500 88.0
11.14500 75.0
11.15500 82.0
11.16500 83.0
11.17500 77.0
11.18500 68.0
11.19500 88.0
11.20500 82.0
11.21500 98.0
11.22500 77.0
11.23500 66.0
11.24500 67.0
11.25500 92.0
11.26500 74.0
11.27500 85.0
11.28500 100.0
11.29500 97.0
11.30500 90.0
11.31500 107.0
11.32500 93.0
11.33500 127.0
11.34500 104.0
11.35500 116.0
11.36500 99.0
11.37500 79.0
11.38500 79.0
11.39500 76.0
11.40500 84.0
11.41500 98.0
11.42500 82.0
11.43500 74.0
11.44500 98.0
11.45500 70.0
11.46500 73.0
11.47500 83.0
11.48500 82.0
11.49500 100.0
11.50500 126.0
11.51500 118.0
11.52500 103.0
11.53500 146.0
11.54500 135.0
11.55500 100.0
11.56500 101.0
11.57500 108.0
11.58500 82.0
11.59500 70.0
11.60500 76.0
11.61500 75.0
11.62500 106.0
11.63500 81.0
11.64500 81.0
11.65500 95.0
11.66500 108.0
11.67500 103.0
11.68500 152.0
11.69500 117.0
11.70500 136.0
11.71500 138.0
11.72500 140.0
11.73500 89.0
11.74500 118.0
11.75500 103.0
11.76500 120.0
11.77500 120.0
11.78500 190.0
11.79500 95.0
11.80500 121.0
11.81500 100.0
11.82500 130.0
11.83500 86.0
11.84500 94.0
11.85500 114.0
11.86500 111.0
11.87500 105.0
11.88500 120.0
11.89500 126.0
11.90500 104.0
11.91500 138.0
11.92500 117.0
11.93500 106.0
11.94500 117.0
11.95500 109.0
11.96500 130.0
11.97500 128.0
11.98500 115.0
11.99500 114.0
