0.00500 12050856.0
0.01500 13463053.0
0.02500 11553934.0
0.03500 8576634.0
0.04500 5562839.0
0.05500 2985700.0
0.06500 1563050.0
0.07500 1309262.0
0.08500 1392966.0
0.09500 1534375.0
0.10500 1691334.0
0.11500 1845370.0
0.12500 2035711.0
0.13500 2190703.0
0.14500 2348280.0
0.15500 2507844.0
0.16500 2645073.0
0.17500 2854849.0
0.18500 3041112.0
0.19500 3164753.0
0.20500 3313417.0
0.21500 3429209.0
0.22500 3620537.0
0.23500 3797141.0
0.24500 3951322.0
0.25500 4100522.0
0.26500 4206269.0
0.27500 4363635.0
0.28500 4552186.0
0.29500 4653027.0
0.30500 4810902.0
0.31500 4941205.0
0.32500 5108389.0
0.33500 5270068.0
0.34500 5374068.0
0.35500 5526573.0
0.36500 5622031.0
0.37500 5754546.0
0.38500 5944147.0
0.39500 6067963.0
0.40500 6177663.0
0.41500 6320209.0
0.42500 6464734.0
0.43500 6614960.0
0.44500 6713125.0
0.45500 6856269.0
0.46500 6942064.0
0.47500 7041551.0
0.48500 7220631.0
0.49500 7304426.0
0.50500 7429459.0
0.51500 7516374.0
0.52500 7569696.0
0.53500 7690261.0
0.54500 7821191.0
0.55500 7919337.0
0.56500 8016394.0
0.57500 8036070.0
0.58500 8207538.0
0.59500 8276855.0
0.60500 8348275.0
0.61500 8512192.0
0.62500 8524972.0
0.63500 8650341.0
0.64500 8700555.0
0.65500 8749532.0
0.66500 8829474.0
0.67500 8789344.0
0.68500 8765051.0
0.69500 8765826.0
0.70500 8602889.0
0.71500 8436151.0
0.72500 7955419.0
0.73500 7203601.0
0.74500 6402125.0
0.75500 5389898.0
0.76500 4516653.0
0.77500 3762867.0
0.78500 3215485.0
0.79500 2842212.0
0.80500 2481943.0
0.81500 2223915.0
0.82500 1997650.0
0.83500 1787201.0
0.84500 1642924.0
0.85500 1504187.0
0.86500 1375125.0
0.87500 1274237.0
0.88500 1181842.0
0.89500 1106713.0
0.90500 1034366.0
0.91500 962436.0
0.92500 904147.0
0.93500 840093.0
0.94500 794651.0
0.95500 751243.0
0.96500 709538.0
0.97500 672600.0
0.98500 629602.0
0.99500 600424.0
1.00500 574473.0
1.01500 542845.0
1.02500 521501.0
1.03500 500022.0
1.04500 471018.0
1.05500 452784.0
1.06500 434105.0
1.07500 415207.0
1.08500 398255.0
1.09500 380381.0
1.10500 368061.0
1.11500 352753.0
1.12500 339259.0
1.13500 328418.0
1.14500 316486.0
1.15500 307508.0
1.16500 294983.0
1.17500 285643.0
1.18500 276325.0
1.19500 267943.0
1.20500 257671.0
1.21500 248979.0
1.22500 239047.0
1.23500 229725.0
1.24500 222393.0
1.25500 218223.0
1.26500 212350.0
1.27500 207200.0
1.28500 204017.0
1.29500 198582.0
1.30500 191578.0
1.31500 186704.0
1.32500 182318.0
1.33500 177295.0
1.34500 174023.0
1.35500 170249.0
1.36500 167715.0
1.37500 164613.0
1.38500 162813.0
1.39500 159729.0
1.40500 157319.0
1.41500 155460.0
1.42500 153355.0
1.43500 153736.0
1.44500 154199.0
1.45500 152651.0
1.46500 152770.0
1.47500 150415.0
1.48500 148160.0
1.49500 147897.0
1.50500 146870.0
1.51500 149172.0
1.52500 151180.0
1.53500 153351.0
1.54500 157906.0
1.55500 162823.0
1.56500 166601.0
1.57500 175058.0
1.58500 184549.0
1.59500 201997.0
1.60500 223268.0
1.61500 247634.0
1.62500 292642.0
1.63500 362983.0
1.64500 471931.0
1.65500 715033.0
1.66500 1175024.0
1.67500 1947472.0
1.68500 2715902.0
1.69500 2912379.0
1.70500 2396216.0
1.71500 1574449.0
1.72500 875363.0
1.73500 476794.0
1.74500 286918.0
1.75500 185241.0
1.76500 130519.0
1.77500 97114.0
1.78500 74582.0
1.79500 60256.0
1.80500 49892.0
1.81500 42544.0
1.82500 37818.0
1.83500 33378.0
1.84500 29758.0
1.85500 26827.0
1.86500 24386.0
1.87500 22637.0
1.88500 21060.0
1.89500 19783.0
1.90500 18145.0
1.91500 17160.0
1.92500 16404.0
1.93500 15778.0
1.94500 14782.0
1.95500 14400.0
1.96500 13502.0
1.97500 13090.0
1.98500 13071.0
1.99500 12526.0
2.00500 12367.0
2.01500 11732.0
2.02500 11290.0
2.03500 10379.0
2.04500 10010.0
2.05500 9459.0
2.06500 8922.0
2.07500 8759.0
2.08500 8518.0
2.09500 8190.0
2.10500 7868.0
2.11500 7673.0
2.12500 7776.0
2.13500 7741.0
2.14500 7457.0
2.15500 7487.0
2.16500 7215.0
2.17500 7226.0
2.18500 7097.0
2.19500 6751.0
2.20500 6385.0
2.21500 6263.0
2.22500 6125.0
2.23500 5913.0
2.24500 5912.0
2.25500 5752.0
2.26500 5643.0
2.27500 5495.0
2.28500 5456.0
2.29500 5185.0
2.30500 5237.0
2.31500 5024.0
2.32500 5095.0
2.33500 4987.0
2.34500 4881.0
2.35500 4833.0
2.36500 4754.0
2.37500 4560.0
2.38500 4502.0
2.39500 4283.0
2.40500 4404.0
2.41500 4334.0
2.42500 4171.0
2.43500 4027.0
2.44500 4089.0
2.45500 3971.0
2.46500 3762.0
2.47500 3896.0
2.48500 3637.0
2.49500 3774.0
2.50500 3633.0
2.51500 3599.0
2.52500 3552.0
2.53500 3378.0
2.54500 3350.0
2.55500 3206.0
2.56500 3200.0
2.57500 3133.0
2.58500 3102.0
2.59500 3134.0
2.60500 2834.0
2.61500 2800.0
2.62500 2830.0
2.63500 2748.0
2.64500 2795.0
2.65500 2669.0
2.66500 2609.0
2.67500 2720.0
2.68500 2662.0
2.69500 2663.0
2.70500 2680.0
2.71500 2488.0
2.72500 2531.0
2.73500 2475.0
2.74500 2520.0
2.75500 2432.0
2.76500 2396.0
2.77500 2386.0
2.78500 2343.0
2.79500 2263.0
2.80500 2378.0
2.81500 2358.0
2.82500 2383.0
2.83500 2401.0
2.84500 2349.0
2.85500 2277.0
2.86500 2474.0
2.87500 2494.0
2.88500 2548.0
2.89500 2502.0
2.90500 2322.0
2.91500 2501.0
2.92500 2563.0
2.93500 2351.0
2.94500 2495.0
2.95500 2611.0
2.96500 2551.0
2.97500 2802.0
2.98500 2962.0
2.99500 2931.0
3.00500 3116.0
3.01500 3274.0
3.02500 3543.0
3.03500 3915.0
3.04500 4571.0
3.05500 5188.0
3.06500 6189.0
3.07500 8035.0
3.08500 10959.0
3.09500 16383.0
3.10500 26599.0
3.11500 46178.0
3.12500 71182.0
3.13500 85855.0
3.14500 82018.0
3.15500 62855.0
3.16500 42153.0
3.17500 27687.0
3.18500 19429.0
3.19500 13955.0
3.20500 10436.0
3.21500 8361.0
3.22500 6674.0
3.23500 5629.0
3.24500 4689.0
3.25500 4041.0
3.26500 3478.0
3.27500 2929.0
3.28500 2695.0
3.29500 2442.0
3.30500 2074.0
3.31500 1914.0
3.32500 1769.0
3.33500 1638.0
3.34500 1518.0
3.35500 1399.0
3.36500 1285.0
3.37500 1244.0
3.38500 1192.0
3.39500 1146.0
3.40500 1022.0
3.41500 1000.0
3.42500 909.0
3.43500 880.0
3.44500 804.0
3.45500 770.0
3.46500 801.0
3.47500 797.0
3.48500 696.0
3.49500 696.0
3.50500 667.0
3.51500 628.0
3.52500 591.0
3.53500 589.0
3.54500 565.0
3.55500 572.0
3.56500 564.0
3.57500 547.0
3.58500 518.0
3.59500 515.0
3.60500 482.0
3.61500 505.0
3.62500 510.0
3.63500 445.0
3.64500 462.0
3.65500 438.0
3.66500 469.0
3.67500 504.0
3.68500 478.0
3.69500 432.0
3.70500 469.0
3.71500 490.0
3.72500 485.0
3.73500 463.0
3.74500 475.0
3.75500 450.0
3.76500 453.0
3.77500 436.0
3.78500 421.0
3.79500 380.0
3.80500 411.0
3.81500 365.0
3.82500 386.0
3.83500 457.0
3.84500 401.0
3.85500 363.0
3.86500 346.0
3.87500 392.0
3.88500 361.0
3.89500 396.0
3.90500 367.0
3.91500 344.0
3.92500 332.0
3.93500 379.0
3.94500 346.0
3.95500 332.0
3.96500 328.0
3.97500 330.0
3.98500 329.0
3.99500 317.0
4.00500 293.0
4.01500 291.0
4.02500 286.0
4.03500 300.0
4.04500 311.0
4.05500 354.0
4.06500 357.0
4.07500 309.0
4.08500 342.0
4.09500 336.0
4.10500 286.0
4.11500 298.0
4.12500 297.0
4.13500 324.0
4.14500 268.0
4.15500 309.0
4.16500 318.0
4.17500 282.0
4.18500 270.0
4.19500 273.0
4.20500 285.0
4.21500 254.0
4.22500 241.0
4.23500 275.0
4.24500 271.0
4.25500 284.0
4.26500 251.0
4.27500 261.0
4.28500 302.0
4.29500 253.0
4.30500 275.0
4.31500 251.0
4.32500 315.0
4.33500 320.0
4.34500 278.0
4.35500 267.0
4.36500 264.0
4.37500 312.0
4.38500 315.0
4.39500 324.0
4.40500 294.0
4.41500 293.0
4.42500 273.0
4.43500 311.0
4.44500 302.0
4.45500 337.0
4.46500 294.0
4.47500 372.0
4.48500 371.0
4.49500 380.0
4.50500 423.0
4.51500 428.0
4.52500 480.0
4.53500 516.0
4.54500 556.0
4.55500 728.0
4.56500 831.0
4.57500 1083.0
4.58500 1595.0
4.59500 2389.0
4.60500 3708.0
4.61500 5749.0
4.62500 7547.0
4.63500 8139.0
4.64500 7500.0
4.65500 5813.0
4.66500 4211.0
4.67500 3042.0
4.68500 2125.0
4.69500 1518.0
4.70500 1227.0
4.71500 937.0
4.72500 834.0
4.73500 647.0
4.74500 543.0
4.75500 465.0
4.76500 410.0
4.77500 390.0
4.78500 370.0
4.79500 303.0
4.80500 277.0
4.81500 263.0
4.82500 274.0
4.83500 221.0
4.84500 221.0
4.85500 213.0
4.86500 226.0
4.87500 243.0
4.88500 193.0
4.89500 200.0
4.90500 178.0
4.91500 208.0
4.92500 187.0
4.93500 191.0
4.94500 185.0
4.95500 180.0
4.96500 203.0
4.97500 151.0
4.98500 178.0
4.99500 179.0
5.00500 217.0
5.01500 177.0
5.02500 206.0
5.03500 176.0
5.04500 180.0
5.05500 134.0
5.06500 138.0
5.07500 122.0
5.08500 129.0
5.09500 172.0
5.10500 138.0
5.11500 149.0
5.12500 142.0
5.13500 133.0
5.14500 119.0
5.15500 119.0
5.16500 96.0
5.17500 109.0
5.18500 117.0
5.19500 107.0
5.20500 116.0
5.21500 108.0
5.22500 95.0
5.23500 119.0
5.24500 93.0
5.25500 86.0
5.26500 110.0
5.27500 99.0
5.28500 102.0
5.29500 104.0
5.30500 106.0
5.31500 80.0
5.32500 115.0
5.33500 101.0
5.34500 83.0
5.35500 86.0
5.36500 97.0
5.37500 84.0
5.38500 90.0
5.39500 85.0
5.40500 84.0
5.41500 81.0
5.42500 74.0
5.43500 59.0
5.44500 72.0
5.45500 67.0
5.46500 103.0
5.47500 103.0
5.48500 89.0
5.49500 83.0
5.50500 65.0
5.51500 74.0
5.52500 59.0
5.53500 88.0
5.54500 79.0
5.55500 62.0
5.56500 66.0
5.57500 69.0
5.58500 95.0
5.59500 63.0
5.60500 88.0
5.61500 64.0
5.62500 78.0
5.63500 54.0
5.64500 65.0
5.65500 68.0
5.66500 52.0
5.67500 70.0
5.68500 53.0
5.69500 62.0
5.70500 58.0
5.71500 75.0
5.72500 53.0
5.73500 56.0
5.74500 78.0
5.75500 58.0
5.76500 58.0
5.77500 53.0
5.78500 56.0
5.79500 69.0
5.80500 64.0
5.81500 66.0
5.82500 62.0
5.83500 57.0
5.84500 74.0
5.85500 72.0
5.86500 67.0
5.87500 55.0
5.88500 59.0
5.89500 63.0
5.90500 64.0
5.91500 45.0
5.92500 63.0
5.93500 68.0
5.94500 65.0
5.95500 68.0
5.96500 64.0
5.97500 51.0
5.98500 63.0
5.99500 50.0
6.00500 52.0
6.01500 48.0
6.02500 62.0
6.03500 69.0
6.04500 66.0
6.05500 56.0
6.06500 74.0
6.07500 72.0
6.08500 95.0
6.09500 101.0
6.10500 118.0
6.11500 139.0
6.12500 187.0
6.13500 232.0
6.14500 244.0
6.15500 244.0
6.16500 212.0
6.17500 176.0
6.18500 123.0
6.19500 127.0
6.20500 117.0
6.21500 99.0
6.22500 86.0
6.23500 56.0
6.24500 86.0
6.25500 78.0
6.26500 65.0
6.27500 77.0
6.28500 59.0
6.29500 56.0
6.30500 76.0
6.31500 88.0
6.32500 88.0
6.33500 84.0
6.34500 105.0
6.35500 79.0
6.36500 61.0
6.37500 66.0
6.38500 52.0
6.39500 59.0
6.40500 62.0
6.41500 59.0
6.42500 68.0
6.43500 61.0
6.44500 55.0
6.45500 40.0
6.46500 40.0
6.47500 47.0
6.48500 33.0
6.49500 35.0
6.50500 33.0
6.51500 38.0
6.52500 35.0
6.53500 39.0
6.54500 32.0
6.55500 44.0
6.56500 41.0
6.57500 44.0
6.58500 36.0
6.59500 54.0
6.60500 37.0
6.61500 26.0
6.62500 16.0
6.63500 20.0
6.64500 44.0
6.65500 42.0
6.66500 40.0
6.67500 54.0
6.68500 37.0
6.69500 30.0
6.70500 36.0
6.71500 35.0
6.72500 41.0
6.73500 46.0
6.74500 37.0
6.75500 47.0
6.76500 47.0
6.77500 59.0
6.78500 59.0
6.79500 49.0
6.80500 43.0
6.81500 68.0
6.82500 69.0
6.83500 84.0
6.84500 69.0
6.85500 67.0
6.86500 73.0
6.87500 57.0
6.88500 74.0
6.89500 67.0
6.90500 75.0
6.91500 88.0
6.92500 66.0
6.93500 61.0
6.94500 64.0
6.95500 49.0
6.96500 59.0
6.97500 49.0
6.98500 48.0
6.99500 34.0
7.00500 37.0
7.01500 53.0
7.02500 37.0
7.03500 27.0
7.04500 36.0
7.05500 22.0
7.06500 28.0
7.07500 47.0
7.08500 38.0
7.09500 34.0
7.10500 33.0
7.11500 40.0
7.12500 57.0
7.13500 42.0
7.14500 62.0
7.15500 56.0
7.16500 46.0
7.17500 44.0
7.18500 39.0
7.19500 34.0
7.20500 42.0
7.21500 56.0
7.22500 40.0
7.23500 44.0
7.24500 23.0
7.25500 30.0
7.26500 52.0
7.27500 30.0
7.28500 32.0
7.29500 33.0
7.30500 30.0
7.31500 22.0
7.32500 29.0
7.33500 35.0
7.34500 19.0
7.35500 25.0
7.36500 21.0
7.37500 20.0
7.38500 24.0
7.39500 21.0
7.40500 26.0
7.41500 29.0
7.42500 21.0
7.43500 29.0
7.44500 25.0
7.45500 31.0
7.46500 29.0
7.47500 27.0
7.48500 21.0
7.49500 27.0
7.50500 26.0
7.51500 19.0
7.52500 27.0
7.53500 31.0
7.54500 43.0
7.55500 51.0
7.56500 30.0
7.57500 25.0
7.58500 22.0
7.59500 28.0
7.60500 46.0
7.61500 40.0
7.62500 55.0
7.63500 75.0
7.64500 96.0
7.65500 111.0
7.66500 104.0
7.67500 108.0
7.68500 112.0
7.69500 89.0
7.70500 90.0
7.71500 91.0
7.72500 71.0
7.73500 87.0
7.74500 73.0
7.75500 68.0
7.76500 59.0
7.77500 39.0
7.78500 56.0
7.79500 52.0
7.80500 47.0
7.81500 41.0
7.82500 58.0
7.83500 69.0
7.84500 48.0
7.85500 45.0
7.86500 42.0
7.87500 43.0
7.88500 53.0
7.89500 46.0
7.90500 53.0
7.91500 54.0
7.92500 35.0
7.93500 36.0
7.94500 35.0
7.95500 27.0
7.96500 38.0
7.97500 25.0
7.98500 30.0
7.99500 30.0
8.00500 32.0
8.01500 31.0
8.02500 29.0
8.03500 20.0
8.04500 29.0
8.05500 36.0
8.06500 39.0
8.07500 42.0
8.08500 29.0
8.09500 42.0
8.10500 26.0
8.11500 33.0
8.12500 28.0
8.13500 21.0
8.14500 18.0
8.15500 15.0
8.16500 19.0
8.17500 20.0
8.18500 21.0
8.19500 21.0
8.20500 29.0
8.21500 28.0
8.22500 18.0
8.23500 37.0
8.24500 30.0
8.25500 28.0
8.26500 44.0
8.27500 19.0
8.28500 22.0
8.29500 30.0
8.30500 16.0
8.31500 35.0
8.32500 29.0
8.33500 28.0
8.34500 41.0
8.35500 24.0
8.36500 16.0
8.37500 21.0
8.38500 19.0
8.39500 35.0
8.40500 25.0
8.41500 40.0
8.42500 29.0
8.43500 30.0
8.44500 36.0
8.45500 21.0
8.46500 25.0
8.47500 31.0
8.48500 30.0
8.49500 33.0
8.50500 33.0
8.51500 32.0
8.52500 40.0
8.53500 32.0
8.54500 39.0
8.55500 21.0
8.56500 22.0
8.57500 25.0
8.58500 20.0
8.59500 35.0
8.60500 34.0
8.61500 44.0
8.62500 38.0
8.63500 29.0
8.64500 22.0
8.65500 20.0
8.66500 13.0
8.67500 26.0
8.68500 26.0
8.69500 24.0
8.70500 38.0
8.71500 18.0
8.72500 31.0
8.73500 16.0
8.74500 26.0
8.75500 21.0
8.76500 25.0
8.77500 21.0
8.78500 24.0
8.79500 14.0
8.80500 31.0
8.81500 17.0
8.82500 21.0
8.83500 29.0
8.84500 42.0
8.85500 25.0
8.86500 27.0
8.87500 26.0
8.88500 42.0
8.89500 24.0
8.90500 21.0
8.91500 38.0
8.92500 37.0
8.93500 27.0
8.94500 38.0
8.95500 45.0
8.96500 29.0
8.97500 28.0
8.98500 31.0
8.99500 38.0
9.00500 44.0
9.01500 30.0
9.02500 41.0
9.03500 35.0
9.04500 36.0
9.05500 40.0
9.06500 39.0
9.07500 66.0
9.08500 37.0
9.09500 52.0
9.10500 36.0
9.11500 28.0
9.12500 35.0
9.13500 31.0
9.14500 25.0
9.15500 32.0
9.16500 28.0
9.17500 41.0
9.18500 35.0
9.19500 32.0
9.20500 39.0
9.21500 31.0
9.22500 51.0
9.23500 41.0
9.24500 39.0
9.25500 34.0
9.26500 27.0
9.27500 36.0
9.28500 24.0
9.29500 33.0
9.30500 51.0
9.31500 51.0
9.32500 29.0
9.33500 29.0
9.34500 42.0
9.35500 34.0
9.36500 45.0
9.37500 36.0
9.38500 38.0
9.39500 38.0
9.40500 56.0
9.41500 36.0
9.42500 31.0
9.43500 27.0
9.44500 29.0
9.45500 26.0
9.46500 29.0
9.47500 49.0
9.48500 47.0
9.49500 34.0
9.50500 28.0
9.51500 34.0
9.52500 50.0
9.53500 43.0
9.54500 24.0
9.55500 31.0
9.56500 31.0
9.57500 28.0
9.58500 43.0
9.59500 56.0
9.60500 49.0
9.61500 65.0
9.62500 59.0
9.63500 48.0
9.64500 43.0
9.65500 41.0
9.66500 42.0
9.67500 26.0
9.68500 35.0
9.69500 36.0
9.70500 28.0
9.71500 40.0
9.72500 36.0
9.73500 32.0
9.74500 24.0
