0.00500 39107700.0
0.01500 46816980.0
0.02500 38744864.0
0.03500 24462088.0
0.04500 13022422.0
0.05500 6235227.0
0.06500 3339653.0
0.07500 2928453.0
0.08500 3321548.0
0.09500 3799014.0
0.10500 4284107.0
0.11500 4766686.0
0.12500 5243651.0
0.13500 5762035.0
0.14500 6236790.0
0.15500 6693765.0
0.16500 7151559.0
0.17500 7621032.0
0.18500 8061174.0
0.19500 8451179.0
0.20500 8917249.0
0.21500 9332726.0
0.22500 9746774.0
0.23500 10178067.0
0.24500 10503770.0
0.25500 10865128.0
0.26500 11242472.0
0.27500 11502559.0
0.28500 11834885.0
0.29500 12101761.0
0.30500 12442972.0
0.31500 12643736.0
0.32500 12927407.0
0.33500 13203122.0
0.34500 13460646.0
0.35500 13731393.0
0.36500 13919845.0
0.37500 14110935.0
0.38500 14372372.0
0.39500 14632651.0
0.40500 14686810.0
0.41500 14865566.0
0.42500 15041683.0
0.43500 15155122.0
0.44500 15365716.0
0.45500 15410806.0
0.46500 15450078.0
0.47500 15439996.0
0.48500 15609381.0
0.49500 15719740.0
0.50500 15724751.0
0.51500 15733333.0
0.52500 15743811.0
0.53500 15737788.0
0.54500 15681843.0
0.55500 15629377.0
0.56500 15507623.0
0.57500 15402104.0
0.58500 15319716.0
0.59500 15113443.0
0.60500 14842169.0
0.61500 14542356.0
0.62500 14227535.0
0.63500 13793676.0
0.64500 13403358.0
0.65500 12867688.0
0.66500 12238934.0
0.67500 11552670.0
0.68500 10734107.0
0.69500 9945239.0
0.70500 9096578.0
0.71500 8280747.0
0.72500 7411154.0
0.73500 6505650.0
0.74500 5760745.0
0.75500 5055024.0
0.76500 4452146.0
0.77500 3898192.0
0.78500 3461973.0
0.79500 3074468.0
0.80500 2743555.0
0.81500 2466991.0
0.82500 2233010.0
0.83500 2011130.0
0.84500 1849641.0
0.85500 1696225.0
0.86500 1547447.0
0.87500 1417078.0
0.88500 1304564.0
0.89500 1201203.0
0.90500 1113275.0
0.91500 1032185.0
0.92500 961099.0
0.93500 893997.0
0.94500 835005.0
0.95500 775176.0
0.96500 725906.0
0.97500 684843.0
0.98500 643006.0
0.99500 607177.0
1.00500 569993.0
1.01500 540196.0
1.02500 511621.0
1.03500 485690.0
1.04500 461476.0
1.05500 440217.0
1.06500 419566.0
1.07500 400510.0
1.08500 386372.0
1.09500 366291.0
1.10500 353852.0
1.11500 338548.0
1.12500 326232.0
1.13500 313675.0
1.14500 304099.0
1.15500 295414.0
1.16500 287592.0
1.17500 277934.0
1.18500 269761.0
1.19500 263619.0
1.20500 257854.0
1.21500 256133.0
1.22500 250189.0
1.23500 247108.0
1.24500 244180.0
1.25500 239982.0
1.26500 239429.0
1.27500 238378.0
1.28500 238639.0
1.29500 240546.0
1.30500 242730.0
1.31500 246570.0
1.32500 249767.0
1.33500 252876.0
1.34500 261985.0
1.35500 270524.0
1.36500 279955.0
1.37500 291272.0
1.38500 305637.0
1.39500 327247.0
1.40500 355148.0
1.41500 387998.0
1.42500 434607.0
1.43500 504748.0
1.44500 600505.0
1.45500 752427.0
1.46500 937734.0
1.47500 1255315.0
1.48500 1718611.0
1.49500 2232360.0
1.50500 2694580.0
1.51500 2980567.0
1.52500 3006349.0
1.53500 2833877.0
1.54500 2524879.0
1.55500 2187370.0
1.56500 1826035.0
1.57500 1519305.0
1.58500 1250354.0
1.59500 1025935.0
1.60500 858568.0
1.61500 718614.0
1.62500 624442.0
1.63500 530107.0
1.64500 455109.0
1.65500 401989.0
1.66500 354597.0
1.67500 324386.0
1.68500 292177.0
1.69500 259976.0
1.70500 240553.0
1.71500 220664.0
1.72500 207894.0
1.73500 195424.0
1.74500 181296.0
1.75500 173420.0
1.76500 165334.0
1.77500 158954.0
1.78500 156027.0
1.79500 150006.0
1.80500 146267.0
1.81500 143896.0
1.82500 139495.0
1.83500 139693.0
1.84500 136504.0
1.85500 134022.0
1.86500 130867.0
1.87500 127072.0
1.88500 123518.0
1.89500 116668.0
1.90500 113134.0
1.91500 107041.0
1.92500 100862.0
1.93500 95746.0
1.94500 90108.0
1.95500 84897.0
1.96500 80960.0
1.97500 76178.0
1.98500 72145.0
1.99500 68374.0
2.00500 65230.0
2.01500 62669.0
2.02500 59260.0
2.03500 56628.0
2.04500 53812.0
2.05500 51945.0
2.06500 48810.0
2.07500 47200.0
2.08500 44713.0
2.09500 42851.0
2.10500 41077.0
2.11500 38670.0
2.12500 38253.0
2.13500 36703.0
2.14500 34696.0
2.15500 33776.0
2.16500 32671.0
2.17500 31919.0
2.18500 30940.0
2.19500 30120.0
2.20500 28924.0
2.21500 27220.0
2.22500 26497.0
2.23500 25704.0
2.24500 24185.0
2.25500 24125.0
2.26500 23153.0
2.27500 22548.0
2.28500 21491.0
2.29500 20398.0
2.30500 19594.0
2.31500 19049.0
2.32500 18269.0
2.33500 17568.0
2.34500 16809.0
2.35500 16063.0
2.36500 15626.0
2.37500 14832.0
2.38500 14148.0
2.39500 13673.0
2.40500 13017.0
2.41500 12479.0
2.42500 12263.0
2.43500 11842.0
2.44500 11365.0
2.45500 10984.0
2.46500 10645.0
2.47500 10379.0
2.48500 9884.0
2.49500 9480.0
2.50500 9083.0
2.51500 9090.0
2.52500 8583.0
2.53500 8149.0
2.54500 7888.0
2.55500 7633.0
2.56500 7392.0
2.57500 7234.0
2.58500 6775.0
2.59500 7041.0
2.60500 6551.0
2.61500 6425.0
2.62500 6104.0
2.63500 5847.0
2.64500 5787.0
2.65500 5577.0
2.66500 5593.0
2.67500 5567.0
2.68500 5687.0
2.69500 5943.0
2.70500 6379.0
2.71500 7712.0
2.72500 11054.0
2.73500 19793.0
2.74500 33305.0
2.75500 46952.0
2.76500 57188.0
2.77500 61737.0
2.78500 60228.0
2.79500 55916.0
2.80500 49401.0
2.81500 42159.0
2.82500 35557.0
2.83500 29869.0
2.84500 25312.0
2.85500 21794.0
2.86500 18973.0
2.87500 16531.0
2.88500 15056.0
2.89500 13539.0
2.90500 12305.0
2.91500 11355.0
2.92500 10309.0
2.93500 9710.0
2.94500 8795.0
2.95500 8370.0
2.96500 7850.0
2.97500 7230.0
2.98500 6853.0
2.99500 6449.0
3.00500 6068.0
3.01500 5895.0
3.02500 5353.0
3.03500 5169.0
3.04500 4852.0
3.05500 4738.0
3.06500 4676.0
3.07500 4300.0
3.08500 4139.0
3.09500 3974.0
3.10500 3838.0
3.11500 3659.0
3.12500 3630.0
3.13500 3461.0
3.14500 3276.0
3.15500 3207.0
3.16500 3049.0
3.17500 3017.0
3.18500 2843.0
3.19500 2913.0
3.20500 2706.0
3.21500 2779.0
3.22500 2601.0
3.23500 2547.0
3.24500 2542.0
3.25500 2492.0
3.26500 2416.0
3.27500 2321.0
3.28500 2376.0
3.29500 2137.0
3.30500 2052.0
3.31500 1928.0
3.32500 1916.0
3.33500 1933.0
3.34500 1927.0
3.35500 1797.0
3.36500 1718.0
3.37500 1800.0
3.38500 1747.0
3.39500 1712.0
3.40500 1676.0
3.41500 1686.0
3.42500 1440.0
3.43500 1530.0
3.44500 1484.0
3.45500 1399.0
3.46500 1351.0
3.47500 1404.0
3.48500 1390.0
3.49500 1428.0
3.50500 1296.0
3.51500 1315.0
3.52500 1314.0
3.53500 1278.0
3.54500 1221.0
3.55500 1137.0
3.56500 1136.0
3.57500 1137.0
3.58500 1073.0
3.59500 1115.0
3.60500 1025.0
3.61500 913.0
3.62500 1037.0
3.63500 995.0
3.64500 911.0
3.65500 926.0
3.66500 907.0
3.67500 903.0
3.68500 900.0
3.69500 920.0
3.70500 847.0
3.71500 830.0
3.72500 750.0
3.73500 733.0
3.74500 698.0
3.75500 680.0
3.76500 674.0
3.77500 686.0
3.78500 676.0
3.79500 663.0
3.80500 686.0
3.81500 768.0
3.82500 663.0
3.83500 633.0
3.84500 673.0
3.85500 637.0
3.86500 573.0
3.87500 625.0
3.88500 576.0
3.89500 609.0
3.90500 572.0
3.91500 579.0
3.92500 612.0
3.93500 577.0
3.94500 683.0
3.95500 619.0
3.96500 630.0
3.97500 678.0
3.98500 795.0
3.99500 972.0
4.00500 1060.0
4.01500 1560.0
4.02500 2681.0
4.03500 5215.0
4.04500 8356.0
4.05500 11759.0
4.06500 13993.0
4.07500 15260.0
4.08500 14918.0
4.09500 14250.0
4.10500 12252.0
4.11500 10271.0
4.12500 8727.0
4.13500 6767.0
4.14500 5667.0
4.15500 4538.0
4.16500 3881.0
4.17500 3215.0
4.18500 2746.0
4.19500 2537.0
4.20500 2152.0
4.21500 1962.0
4.22500 1804.0
4.23500 1634.0
4.24500 1469.0
4.25500 1409.0
4.26500 1361.0
4.27500 1222.0
4.28500 1169.0
4.29500 1114.0
4.30500 998.0
4.31500 1033.0
4.32500 952.0
4.33500 909.0
4.34500 890.0
4.35500 767.0
4.36500 807.0
4.37500 709.0
4.38500 674.0
4.39500 659.0
4.40500 699.0
4.41500 639.0
4.42500 571.0
4.43500 589.0
4.44500 562.0
4.45500 511.0
4.46500 523.0
4.47500 484.0
4.48500 480.0
4.49500 453.0
4.50500 485.0
4.51500 438.0
4.52500 495.0
4.53500 462.0
4.54500 480.0
4.55500 419.0
4.56500 482.0
4.57500 411.0
4.58500 447.0
4.59500 375.0
4.60500 391.0
4.61500 367.0
4.62500 300.0
4.63500 362.0
4.64500 342.0
4.65500 333.0
4.66500 338.0
4.67500 317.0
4.68500 341.0
4.69500 355.0
4.70500 349.0
4.71500 326.0
4.72500 321.0
4.73500 331.0
4.74500 313.0
4.75500 323.0
4.76500 294.0
4.77500 264.0
4.78500 277.0
4.79500 283.0
4.80500 309.0
4.81500 360.0
4.82500 268.0
4.83500 280.0
4.84500 247.0
4.85500 271.0
4.86500 313.0
4.87500 292.0
4.88500 253.0
4.89500 269.0
4.90500 270.0
4.91500 276.0
4.92500 326.0
4.93500 298.0
4.94500 257.0
4.95500 264.0
4.96500 270.0
4.97500 258.0
4.98500 249.0
4.99500 263.0
5.00500 241.0
5.01500 251.0
5.02500 246.0
5.03500 242.0
5.04500 228.0
5.05500 206.0
5.06500 225.0
5.07500 241.0
5.08500 234.0
5.09500 223.0
5.10500 230.0
5.11500 222.0
5.12500 216.0
5.13500 197.0
5.14500 214.0
5.15500 207.0
5.16500 180.0
5.17500 222.0
5.18500 183.0
5.19500 240.0
5.20500 221.0
5.21500 238.0
5.22500 223.0
5.23500 206.0
5.24500 263.0
5.25500 331.0
5.26500 312.0
5.27500 297.0
5.28500 315.0
5.29500 320.0
5.30500 318.0
5.31500 424.0
5.32500 498.0
5.33500 678.0
5.34500 994.0
5.35500 1475.0
5.36500 1970.0
5.37500 2336.0
5.38500 2720.0
5.39500 2829.0
5.40500 2664.0
5.41500 2669.0
5.42500 2320.0
5.43500 1996.0
5.44500 1714.0
5.45500 1468.0
5.46500 1320.0
5.47500 1109.0
5.48500 946.0
5.49500 868.0
5.50500 812.0
5.51500 620.0
5.52500 630.0
5.53500 630.0
5.54500 535.0
5.55500 589.0
5.56500 585.0
5.57500 538.0
5.58500 527.0
5.59500 405.0
5.60500 411.0
5.61500 430.0
5.62500 390.0
5.63500 364.0
5.64500 366.0
5.65500 321.0
5.66500 315.0
5.67500 300.0
5.68500 334.0
5.69500 302.0
5.70500 278.0
5.71500 289.0
5.72500 318.0
5.73500 365.0
5.74500 316.0
5.75500 330.0
5.76500 311.0
5.77500 268.0
5.78500 240.0
5.79500 293.0
5.80500 264.0
5.81500 227.0
5.82500 278.0
5.83500 262.0
5.84500 269.0
5.85500 273.0
5.86500 230.0
5.87500 275.0
5.88500 248.0
5.89500 240.0
5.90500 245.0
5.91500 230.0
5.92500 235.0
5.93500 231.0
5.94500 244.0
5.95500 247.0
5.96500 240.0
5.97500 238.0
5.98500 209.0
5.99500 226.0
6.00500 193.0
6.01500 183.0
6.02500 201.0
6.03500 206.0
6.04500 199.0
6.05500 201.0
6.06500 235.0
6.07500 198.0
6.08500 211.0
6.09500 188.0
6.10500 221.0
6.11500 197.0
6.12500 196.0
6.13500 216.0
6.14500 244.0
6.15500 234.0
6.16500 223.0
6.17500 224.0
6.18500 215.0
6.19500 247.0
6.20500 205.0
6.21500 193.0
6.22500 190.0
6.23500 212.0
6.24500 189.0
6.25500 192.0
6.26500 199.0
6.27500 180.0
6.28500 191.0
6.29500 222.0
6.30500 225.0
6.31500 181.0
6.32500 161.0
6.33500 157.0
6.34500 142.0
6.35500 152.0
6.36500 160.0
6.37500 172.0
6.38500 164.0
6.39500 157.0
6.40500 173.0
6.41500 192.0
6.42500 176.0
6.43500 211.0
6.44500 235.0
6.45500 201.0
6.46500 237.0
6.47500 174.0
6.48500 233.0
6.49500 183.0
6.50500 159.0
6.51500 158.0
6.52500 170.0
6.53500 206.0
6.54500 171.0
6.55500 178.0
6.56500 185.0
6.57500 177.0
6.58500 229.0
6.59500 182.0
6.60500 168.0
6.61500 167.0
6.62500 154.0
6.63500 159.0
6.64500 151.0
6.65500 156.0
6.66500 225.0
6.67500 234.0
6.68500 265.0
6.69500 325.0
6.70500 360.0
6.71500 400.0
6.72500 390.0
6.73500 382.0
6.74500 368.0
6.75500 344.0
6.76500 316.0
6.77500 255.0
6.78500 244.0
6.79500 221.0
6.80500 218.0
6.81500 205.0
6.82500 207.0
6.83500 194.0
6.84500 208.0
6.85500 175.0
6.86500 178.0
6.87500 163.0
6.88500 137.0
6.89500 192.0
6.90500 182.0
6.91500 154.0
6.92500 144.0
6.93500 111.0
6.94500 128.0
6.95500 141.0
6.96500 126.0
6.97500 145.0
6.98500 101.0
6.99500 103.0
7.00500 124.0
7.01500 142.0
7.02500 106.0
7.03500 118.0
7.04500 117.0
7.05500 111.0
7.06500 115.0
7.07500 103.0
7.08500 104.0
7.09500 111.0
7.10500 138.0
7.11500 129.0
7.12500 144.0
7.13500 154.0
7.14500 175.0
7.15500 178.0
7.16500 172.0
7.17500 187.0
7.18500 201.0
7.19500 222.0
7.20500 166.0
7.21500 135.0
7.22500 148.0
7.23500 138.0
7.24500 114.0
7.25500 113.0
7.26500 141.0
7.27500 123.0
7.28500 122.0
7.29500 114.0
7.30500 84.0
7.31500 114.0
7.32500 107.0
7.33500 130.0
7.34500 116.0
7.35500 135.0
7.36500 108.0
7.37500 119.0
7.38500 103.0
7.39500 129.0
7.40500 106.0
7.41500 113.0
7.42500 137.0
7.43500 137.0
7.44500 146.0
7.45500 146.0
7.46500 121.0
7.47500 105.0
7.48500 112.0
7.49500 126.0
7.50500 113.0
7.51500 108.0
7.52500 101.0
7.53500 84.0
7.54500 98.0
7.55500 127.0
7.56500 122.0
7.57500 106.0
7.58500 107.0
7.59500 90.0
7.60500 138.0
7.61500 133.0
7.62500 114.0
7.63500 112.0
7.64500 105.0
7.65500 96.0
7.66500 159.0
7.67500 131.0
7.68500 153.0
7.69500 144.0
7.70500 183.0
7.71500 134.0
7.72500 182.0
7.73500 175.0
7.74500 165.0
7.75500 147.0
7.76500 136.0
7.77500 120.0
7.78500 125.0
7.79500 115.0
7.80500 120.0
7.81500 131.0
7.82500 151.0
7.83500 155.0
7.84500 131.0
7.85500 148.0
7.86500 131.0
7.87500 110.0
7.88500 136.0
7.89500 122.0
7.90500 133.0
7.91500 99.0
7.92500 151.0
7.93500 181.0
7.94500 213.0
7.95500 216.0
7.96500 235.0
7.97500 222.0
7.98500 232.0
7.99500 236.0
