0.00500 394194092032.0
0.01500 445659185152.0
0.02500 342494019584.0
0.03500 207275278336.0
0.04500 109822361600.0
0.05500 60160839680.0
0.06500 53131796480.0
0.07500 59061284864.0
0.08500 66169720832.0
0.09500 74464722944.0
0.10500 82497601536.0
0.11500 89932931072.0
0.12500 97339023360.0
0.13500 103824064512.0
0.14500 112493518848.0
0.15500 120309063680.0
0.16500 127825960960.0
0.17500 135813021696.0
0.18500 141898334208.0
0.19500 150288465920.0
0.20500 158335188992.0
0.21500 163781083136.0
0.22500 170626334720.0
0.23500 175698132992.0
0.24500 182829940736.0
0.25500 192006406144.0
0.26500 196727816192.0
0.27500 202647355392.0
0.28500 207401500672.0
0.29500 213091811328.0
0.30500 222498652160.0
0.31500 226358607872.0
0.32500 233485582336.0
0.33500 237508984832.0
0.34500 242476187648.0
0.35500 250173587456.0
0.36500 252939894784.0
0.37500 258185216000.0
0.38500 263398981632.0
0.39500 267755995136.0
0.40500 273106190336.0
0.41500 276242694144.0
0.42500 281037242368.0
0.43500 284402417664.0
0.44500 288375046144.0
0.45500 292940775424.0
0.46500 295764426752.0
0.47500 298632839168.0
0.48500 302292566016.0
0.49500 305300963328.0
0.50500 306534088704.0
0.51500 309043593216.0
0.52500 310234710016.0
0.53500 312269471744.0
0.54500 313248940032.0
0.55500 315694743552.0
0.56500 315384070144.0
0.57500 314668122112.0
0.58500 314587611136.0
0.59500 313575866368.0
0.60500 312311709696.0
0.61500 308602142720.0
0.62500 303637200896.0
0.63500 298475716608.0
0.64500 289917501440.0
0.65500 274319409152.0
0.66500 256298893312.0
0.67500 226888630272.0
0.68500 194496839680.0
0.69500 156343074816.0
0.70500 124653273088.0
0.71500 100686954496.0
0.72500 82086928384.0
0.73500 68781907968.0
0.74500 57578008576.0
0.75500 49761329152.0
0.76500 42990882816.0
0.77500 37001400320.0
0.78500 32518649856.0
0.79500 28480843776.0
0.80500 24766470144.0
0.81500 21814489088.0
0.82500 19667693568.0
0.83500 17537316864.0
0.84500 15168956416.0
0.85500 14008285184.0
0.86500 12857808896.0
0.87500 11107250176.0
0.88500 9746915328.0
0.89500 9208339456.0
0.90500 8518403584.0
0.91500 7344935936.0
0.92500 6363063296.0
0.93500 6125248000.0
0.94500 5798796288.0
0.95500 5033775104.0
0.96500 4240084224.0
0.97500 3994339840.0
0.98500 3982676224.0
0.99500 3592131072.0
1.00500 2950974976.0
1.01500 2617796096.0
1.02500 2611810560.0
1.03500 2561017088.0
1.04500 2199393024.0
1.05500 1798540928.0
1.06500 1710211712.0
1.07500 1762501632.0
1.08500 1691499776.0
1.09500 1390109056.0
1.10500 1146909824.0
1.11500 1132113664.0
1.12500 1176949632.0
1.13500 1094997504.0
1.14500 896564352.0
1.15500 759595264.0
1.16500 797228928.0
1.17500 832051584.0
1.18500 747847872.0
1.19500 624891776.0
1.20500 556784832.0
1.21500 597844736.0
1.22500 614137280.0
1.23500 551274688.0
1.24500 469406528.0
1.25500 442499392.0
1.26500 492076224.0
1.27500 513948736.0
1.28500 459477184.0
1.29500 385160896.0
1.30500 374504320.0
1.31500 433590944.0
1.32500 459379264.0
1.33500 410879296.0
1.34500 341261984.0
1.35500 327850368.0
1.36500 403691008.0
1.37500 457421376.0
1.38500 414557344.0
1.39500 339695648.0
1.40500 309991520.0
1.41500 374476352.0
1.42500 461980480.0
1.43500 465127104.0
1.44500 388391424.0
1.45500 314256928.0
1.46500 346156736.0
1.47500 441184800.0
1.48500 498411424.0
1.49500 450261056.0
1.50500 361050752.0
1.51500 335262400.0
1.52500 420291200.0
1.53500 516060480.0
1.54500 525863968.0
1.55500 448498944.0
1.56500 365973472.0
1.57500 398194912.0
1.58500 511389504.0
1.59500 594628224.0
1.60500 556421184.0
1.61500 454442560.0
1.62500 400963936.0
1.63500 472804864.0
1.64500 594082816.0
1.65500 646694400.0
1.66500 571343168.0
1.67500 466189984.0
1.68500 452386784.0
1.69500 548309888.0
1.70500 670958336.0
1.71500 692788928.0
1.72500 595047744.0
1.73500 496803136.0
1.74500 516046496.0
1.75500 647323712.0
1.76500 765217216.0
1.77500 763720832.0
1.78500 657504768.0
1.79500 566672192.0
1.80500 622262592.0
1.81500 781020288.0
1.82500 915933568.0
1.83500 895445568.0
1.84500 764727744.0
1.85500 674636416.0
1.86500 759972864.0
1.87500 990501632.0
1.88500 1174278528.0
1.89500 1149874688.0
1.90500 987201152.0
1.91500 908717312.0
1.92500 1075586304.0
1.93500 1434819072.0
1.94500 1682675200.0
1.95500 1686451200.0
1.96500 1505331456.0
1.97500 1476032896.0
1.98500 1857557632.0
1.99500 2620830976.0
2.00500 3343869440.0
2.01500 3648728576.0
2.02500 3788326656.0
2.03500 5040921088.0
2.04500 8819835904.0
2.05500 16269184000.0
2.06500 26698637312.0
2.07500 37668806656.0
2.08500 47469088768.0
2.09500 52898557952.0
2.10500 53329936384.0
2.11500 47874740224.0
2.12500 39457210368.0
2.13500 28975788032.0
2.14500 20072599552.0
2.15500 13933060096.0
2.16500 10829046784.0
2.17500 9543699456.0
2.18500 8774482944.0
2.19500 7801602048.0
2.20500 6476942848.0
2.21500 5248626688.0
2.22500 4431846400.0
2.23500 3939057152.0
2.24500 3690193920.0
2.25500 3346988032.0
2.26500 2935927040.0
2.27500 2497846784.0
2.28500 2095232640.0
2.29500 1885737344.0
2.30500 1754082560.0
2.31500 1674354176.0
2.32500 1543286656.0
2.33500 1339343488.0
2.34500 1167761536.0
2.35500 1043700544.0
2.36500 1000486912.0
2.37500 996473216.0
2.38500 940239488.0
2.39500 850777472.0
2.40500 741778368.0
2.41500 669895488.0
2.42500 665420288.0
2.43500 664315456.0
2.44500 649854976.0
2.45500 609410368.0
2.46500 535765344.0
2.47500 493558624.0
2.48500 472944736.0
2.49500 477210144.0
2.50500 473042624.0
2.51500 442233664.0
2.52500 394251136.0
2.53500 355890272.0
2.54500 335556096.0
2.55500 345093856.0
2.56500 345387552.0
2.57500 331066912.0
2.58500 303642304.0
2.59500 271322976.0
2.60500 258596640.0
2.61500 262848080.0
2.62500 271113216.0
2.63500 261169872.0
2.64500 235143792.0
2.65500 214376064.0
2.66500 201370016.0
2.67500 202894384.0
2.68500 217522688.0
2.69500 208865968.0
2.70500 194601280.0
2.71500 171078512.0
2.72500 156673952.0
2.73500 158645840.0
2.74500 167302560.0
2.75500 169400304.0
2.76500 162337888.0
2.77500 142353312.0
2.78500 128773880.0
2.79500 128634032.0
2.80500 137766240.0
2.81500 142926704.0
2.82500 137108944.0
2.83500 121124088.0
2.84500 111054888.0
2.85500 109488568.0
2.86500 118592800.0
2.87500 123865144.0
2.88500 120298968.0
2.89500 106817432.0
2.90500 100146584.0
2.91500 94356792.0
2.92500 101405232.0
2.93500 106845400.0
2.94500 107880288.0
2.95500 95279808.0
2.96500 88469112.0
2.97500 84567296.0
2.98500 88567008.0
2.99500 99307488.0
3.00500 98342520.0
3.01500 87392264.0
3.02500 75560952.0
3.03500 72344408.0
3.04500 78875400.0
3.05500 84637216.0
3.06500 92105208.0
3.07500 82287744.0
3.08500 73505160.0
3.09500 70134776.0
3.10500 70694176.0
3.11500 77057352.0
3.12500 77490888.0
3.13500 71533272.0
3.14500 64400924.0
3.15500 55758196.0
3.16500 60051592.0
3.17500 65617620.0
3.18500 66988152.0
3.19500 62848592.0
3.20500 55828120.0
3.21500 50401940.0
3.22500 52555632.0
3.23500 58695044.0
3.24500 61799716.0
3.25500 58988728.0
3.26500 50401940.0
3.27500 45339368.0
3.28500 45381324.0
3.29500 52443752.0
3.30500 54919096.0
3.31500 52723448.0
3.32500 47185392.0
3.33500 39185968.0
3.34500 40458604.0
3.35500 44500272.0
3.36500 49185244.0
3.37500 47227344.0
3.38500 41773196.0
3.39500 35577840.0
3.40500 36682656.0
3.41500 40934096.0
3.42500 45758920.0
3.43500 44626136.0
3.44500 39353792.0
3.45500 33969564.0
3.46500 32557080.0
3.47500 34780696.0
3.48500 38934240.0
3.49500 39451684.0
3.50500 34584904.0
3.51500 31186550.0
3.52500 27494510.0
3.53500 28725190.0
3.54500 30067750.0
3.55500 33494076.0
3.56500 30151660.0
3.57500 27648344.0
3.58500 24683524.0
3.59500 27256764.0
3.60500 28305640.0
3.61500 30753016.0
3.62500 29354516.0
3.63500 25676460.0
3.64500 21620810.0
3.65500 24040216.0
3.66500 27494510.0
3.67500 31256476.0
3.68500 28151804.0
3.69500 24655556.0
3.70500 20278250.0
3.71500 22208180.0
3.72500 23117204.0
3.73500 25410744.0
3.74500 24865330.0
3.75500 21243216.0
3.76500 19075540.0
3.77500 18544110.0
3.78500 21173290.0
3.79500 23578710.0
3.80500 23914350.0
3.81500 22152240.0
3.82500 19425164.0
3.83500 18082604.0
3.84500 19537044.0
3.85500 23578710.0
3.86500 24977210.0
3.87500 24529690.0
3.88500 22893444.0
3.89500 20026520.0
3.90500 21466976.0
3.91500 26445636.0
3.92500 33312270.0
3.93500 38374840.0
3.94500 41465524.0
3.95500 47353208.0
3.96500 72106656.0
3.97500 132563816.0
3.98500 234192816.0
3.99500 377119520.0
4.00500 527709984.0
4.01500 652847744.0
4.02500 715570496.0
4.03500 697627712.0
4.04500 608235648.0
4.05500 479573632.0
4.06500 356100064.0
4.07500 253254368.0
4.08500 192965024.0
4.09500 159512912.0
4.10500 143136480.0
4.11500 131752688.0
4.12500 118620768.0
4.13500 99713048.0
4.14500 82567440.0
4.15500 73421248.0
4.16500 64414912.0
4.17500 60820764.0
4.18500 54093980.0
4.19500 46779824.0
4.20500 41899060.0
4.21500 38221004.0
4.22500 34500996.0
4.23500 33605956.0
4.24500 30948804.0
4.25500 26963080.0
4.26500 25550596.0
4.27500 22879460.0
4.28500 21998404.0
4.29500 20488024.0
4.30500 19732836.0
4.31500 17453280.0
4.32500 17467264.0
4.33500 15285605.0
4.34500 14320640.0
4.35500 13341690.0
4.36500 12600485.0
4.37500 12418680.0
4.38500 11551610.0
4.39500 10153110.0
4.40500 9733560.0
4.41500 8894460.0
4.42500 8572805.0
4.43500 8936415.0
4.44500 8950400.0
4.45500 9160175.0
4.46500 8293105.0
4.47500 8013405.0
4.48500 8125285.0
4.49500 8964385.0
4.50500 6754755.0
4.51500 6908590.0
4.52500 8195210.0
4.53500 8013405.0
4.54500 6852650.0
4.55500 7523930.0
4.56500 7915510.0
4.57500 7565885.0
4.58500 7202275.0
4.59500 8335060.0
4.60500 7076410.0
4.61500 5971595.0
4.62500 5943625.0
4.63500 5999565.0
4.64500 6796710.0
4.65500 6013550.0
4.66500 5859715.0
4.67500 5635955.0
4.68500 5873700.0
4.69500 6558965.0
4.70500 5244375.0
4.71500 4587080.0
4.72500 4293395.0
4.73500 6307235.0
4.74500 6433100.0
4.75500 7034455.0
4.76500 7817615.0
4.77500 6894605.0
4.78500 7845585.0
4.79500 7258215.0
4.80500 6922575.0
4.81500 6838665.0
4.82500 5384225.0
4.83500 5090540.0
4.84500 4978660.0
4.85500 4027680.0
4.86500 5747835.0
4.87500 5132495.0
4.88500 5300315.0
4.89500 5342270.0
4.90500 5188435.0
4.91500 5006630.0
4.92500 7985435.0
4.93500 8167240.0
4.94500 7440020.0
4.95500 6670845.0
4.96500 5873700.0
4.97500 4601065.0
4.98500 4517155.0
4.99500 4643020.0
5.00500 5468135.0
5.01500 5062570.0
5.02500 5146480.0
5.03500 5146480.0
5.04500 5761820.0
5.05500 5034600.0
5.06500 5188435.0
5.07500 5216405.0
5.08500 5062570.0
5.09500 6447085.0
5.10500 6628890.0
5.11500 6614905.0
5.12500 6530995.0
5.13500 6936560.0
5.14500 6558965.0
5.15500 5048585.0
5.16500 4698960.0
5.17500 4852795.0
5.18500 4866780.0
5.19500 4321365.0
5.20500 4349335.0
5.21500 4349335.0
5.22500 4489185.0
5.23500 4643020.0
5.24500 4433245.0
5.25500 5188435.0
5.26500 5076555.0
5.27500 5580015.0
5.28500 4559110.0
5.29500 5062570.0
5.30500 4223470.0
5.31500 3985725.0
5.32500 3370385.0
5.33500 4237455.0
5.34500 4657005.0
5.35500 5020615.0
5.36500 5356255.0
5.37500 5621970.0
5.38500 3803920.0
5.39500 4181515.0
5.40500 4209485.0
5.41500 4670990.0
5.42500 6237310.0
5.43500 5831745.0
5.44500 5440165.0
5.45500 5384225.0
5.46500 5104525.0
5.47500 5398210.0
5.48500 4615050.0
5.49500 5300315.0
5.50500 4517155.0
5.51500 3817905.0
5.52500 4796855.0
5.53500 5160465.0
5.54500 5342270.0
5.55500 5132495.0
5.56500 4684975.0
5.57500 4824825.0
5.58500 4684975.0
5.59500 4293395.0
5.60500 4321365.0
5.61500 3692040.0
5.62500 3733995.0
5.63500 3566175.0
5.64500 3370385.0
5.65500 3733995.0
5.66500 3971740.0
5.67500 3957755.0
5.68500 4083620.0
5.69500 3943770.0
5.70500 3510235.0
5.71500 3468280.0
5.72500 3594145.0
5.73500 4055650.0
5.74500 4670990.0
5.75500 4195500.0
5.76500 3398355.0
5.77500 3817905.0
5.78500 3300460.0
5.79500 3985725.0
5.80500 5006630.0
5.81500 3132640.0
5.82500 4307380.0
5.83500 4894750.0
5.84500 4531140.0
5.85500 4754900.0
5.86500 4195500.0
5.87500 4615050.0
5.88500 6195355.0
5.89500 6503025.0
5.90500 6824680.0
5.91500 9831455.0
5.92500 12027100.0
5.93500 15663200.0
5.94500 22264120.0
5.95500 29284590.0
5.96500 37521756.0
5.97500 44738016.0
5.98500 49870512.0
5.99500 49269156.0
6.00500 49450960.0
6.01500 44122676.0
6.02500 37633636.0
6.03500 29102784.0
6.04500 24333900.0
6.05500 21746676.0
6.06500 18767870.0
6.07500 18460200.0
6.08500 17886816.0
6.09500 16628165.0
6.10500 15579290.0
6.11500 15383500.0
6.12500 14054925.0
6.13500 13523495.0
6.14500 13495525.0
6.15500 11481685.0
6.16500 10558675.0
6.17500 11118075.0
6.18500 10125140.0
6.19500 11551610.0
6.20500 10041230.0
6.21500 8377015.0
6.22500 7873555.0
6.23500 6558965.0
6.24500 7286185.0
6.25500 6838665.0
6.26500 6279265.0
6.27500 7020470.0
6.28500 7076410.0
6.29500 7090395.0
6.30500 7719720.0
6.31500 7146335.0
6.32500 5286330.0
6.33500 4824825.0
6.34500 4964675.0
6.35500 4796855.0
6.36500 5230390.0
6.37500 5090540.0
6.38500 5705880.0
6.39500 4601065.0
6.40500 4643020.0
6.41500 3803920.0
6.42500 3426325.0
6.43500 2852940.0
6.44500 3048730.0
6.45500 2880910.0
6.46500 3468280.0
6.47500 3859860.0
6.48500 3230535.0
6.49500 3650085.0
6.50500 3370385.0
6.51500 3608130.0
6.52500 4083620.0
6.53500 3636100.0
6.54500 2769030.0
6.55500 2880910.0
6.56500 2922865.0
6.57500 3286475.0
6.58500 2643165.0
6.59500 3971740.0
6.60500 3831890.0
6.61500 3328430.0
6.62500 2377450.0
6.63500 3174595.0
6.64500 2978805.0
6.65500 2377450.0
6.66500 2041810.0
6.67500 2894895.0
6.68500 2433390.0
6.69500 2936850.0
6.70500 3594145.0
6.71500 2391435.0
6.72500 2461360.0
6.73500 2461360.0
6.74500 2461360.0
6.75500 2922865.0
6.76500 2797000.0
6.77500 2769030.0
6.78500 2824970.0
6.79500 1915945.0
6.80500 1832035.0
6.81500 1468425.0
6.82500 1846020.0
6.83500 2041810.0
6.84500 2629180.0
6.85500 2783015.0
6.86500 2657150.0
6.87500 2069780.0
6.88500 2433390.0
6.89500 1915945.0
6.90500 2824970.0
6.91500 3440310.0
6.92500 3118655.0
6.93500 3412340.0
6.94500 3664070.0
6.95500 3594145.0
6.96500 4111590.0
6.97500 4531140.0
6.98500 5440165.0
6.99500 4852795.0
7.00500 4531140.0
7.01500 2349480.0
7.02500 2349480.0
7.03500 2601210.0
7.04500 4041665.0
7.05500 4880765.0
7.06500 4363320.0
7.07500 4265425.0
7.08500 5160465.0
7.09500 3929785.0
7.10500 4908735.0
7.11500 3943770.0
7.12500 4964675.0
7.13500 5845730.0
7.14500 4684975.0
7.15500 4503170.0
7.16500 5286330.0
7.17500 4573095.0
7.18500 4321365.0
7.19500 3440310.0
7.20500 7132350.0
7.21500 6530995.0
7.22500 4223470.0
7.23500 4573095.0
7.24500 4335350.0
7.25500 3328430.0
7.26500 4405275.0
7.27500 5216405.0
7.28500 5160465.0
7.29500 4461215.0
7.30500 5440165.0
7.31500 5468135.0
7.32500 4712945.0
7.33500 3650085.0
7.34500 3496250.0
7.35500 3188580.0
7.36500 3496250.0
7.37500 4503170.0
7.38500 6978515.0
7.39500 6558965.0
7.40500 5845730.0
7.41500 4349335.0
7.42500 3817905.0
7.43500 4405275.0
7.44500 3384370.0
7.45500 3706025.0
7.46500 4573095.0
7.47500 4726930.0
7.48500 4866780.0
7.49500 5789790.0
7.50500 3650085.0
7.51500 4027680.0
7.52500 3622115.0
7.53500 3272490.0
7.54500 4181515.0
7.55500 4419260.0
7.56500 4111590.0
7.57500 3943770.0
7.58500 3412340.0
7.59500 3859860.0
7.60500 3720010.0
7.61500 3118655.0
7.62500 3174595.0
7.63500 3775950.0
7.64500 3985725.0
7.65500 3775950.0
7.66500 3580160.0
7.67500 4069635.0
7.68500 4531140.0
7.69500 3873845.0
7.70500 4559110.0
7.71500 5314300.0
7.72500 6391145.0
7.73500 5663925.0
7.74500 7160320.0
7.75500 7118365.0
7.76500 8279120.0
7.77500 5649940.0
7.78500 7440020.0
7.79500 7356110.0
7.80500 7160320.0
7.81500 6181370.0
7.82500 5328285.0
7.83500 5705880.0
7.84500 5594000.0
7.85500 5104525.0
7.86500 7370095.0
7.87500 6670845.0
7.88500 6111445.0
7.89500 8404985.0
7.90500 7915510.0
7.91500 8446940.0
7.92500 11118075.0
7.93500 12166950.0
7.94500 14096880.0
7.95500 14949965.0
7.96500 15900945.0
7.97500 15733125.0
7.98500 14166805.0
7.99500 12642440.0
8.00500 10908300.0
8.01500 9915365.0
8.02500 8712655.0
8.03500 9006340.0
8.04500 8293105.0
8.05500 6838665.0
8.06500 6978515.0
8.07500 5887685.0
8.08500 6349190.0
8.09500 5244375.0
8.10500 4698960.0
8.11500 6335205.0
8.12500 6517010.0
8.13500 5146480.0
8.14500 4922720.0
8.15500 4629035.0
8.16500 6195355.0
8.17500 4726930.0
8.18500 4712945.0
8.19500 5524075.0
8.20500 7859570.0
8.21500 7873555.0
8.22500 6419115.0
8.23500 5006630.0
8.24500 5216405.0
8.25500 4531140.0
8.26500 3622115.0
8.27500 4922720.0
8.28500 5104525.0
8.29500 3957755.0
8.30500 4768885.0
8.31500 4517155.0
8.32500 4391290.0
8.33500 5314300.0
8.34500 6195355.0
8.35500 7761675.0
8.36500 6642875.0
8.37500 6363175.0
8.38500 5663925.0
8.39500 4363320.0
8.40500 3412340.0
8.41500 4027680.0
8.42500 3622115.0
8.43500 4587080.0
8.44500 5202420.0
8.45500 5803775.0
8.46500 4978660.0
8.47500 4824825.0
8.48500 4950690.0
8.49500 4684975.0
8.50500 4922720.0
8.51500 4615050.0
8.52500 4629035.0
8.53500 4405275.0
8.54500 4531140.0
8.55500 5496105.0
8.56500 4461215.0
8.57500 4894750.0
8.58500 3426325.0
8.59500 4475200.0
8.60500 3915800.0
8.61500 3510235.0
8.62500 2545270.0
8.63500 3622115.0
8.64500 3146625.0
8.65500 2461360.0
8.66500 2531285.0
8.67500 1943915.0
8.68500 1901960.0
8.69500 2894895.0
8.70500 2545270.0
8.71500 3132640.0
8.72500 2727075.0
8.73500 2349480.0
8.74500 3146625.0
8.75500 2587225.0
8.76500 2573240.0
8.77500 2419405.0
8.78500 2685120.0
8.79500 3118655.0
8.80500 3733995.0
8.81500 4279410.0
8.82500 2810985.0
8.83500 3216550.0
8.84500 3622115.0
8.85500 3817905.0
8.86500 3342415.0
8.87500 3118655.0
8.88500 3412340.0
8.89500 3901815.0
8.90500 4139560.0
8.91500 3845875.0
8.92500 3664070.0
8.93500 3957755.0
8.94500 4545125.0
8.95500 5020615.0
8.96500 4419260.0
8.97500 4824825.0
8.98500 3524220.0
8.99500 3230535.0
9.00500 3216550.0
9.01500 2824970.0
9.02500 3272490.0
9.03500 4573095.0
9.04500 3636100.0
9.05500 4517155.0
9.06500 5957610.0
9.07500 3985725.0
9.08500 4978660.0
9.09500 4838810.0
9.10500 3706025.0
9.11500 2699105.0
9.12500 2055795.0
9.13500 2237600.0
9.14500 2251585.0
9.15500 2321510.0
9.16500 1915945.0
9.17500 2069780.0
9.18500 3356400.0
9.19500 2810985.0
9.20500 2713090.0
9.21500 3580160.0
9.22500 2419405.0
9.23500 2783015.0
9.24500 3048730.0
9.25500 4069635.0
9.26500 3971740.0
9.27500 4125575.0
9.28500 4223470.0
9.29500 4587080.0
9.30500 4055650.0
9.31500 3552190.0
9.32500 3398355.0
9.33500 4321365.0
9.34500 4307380.0
9.35500 6293250.0
9.36500 6475055.0
9.37500 6838665.0
9.38500 5244375.0
9.39500 6223325.0
9.40500 6237310.0
9.41500 4712945.0
9.42500 4810840.0
9.43500 6167385.0
9.44500 6810695.0
9.45500 9020325.0
9.46500 8069345.0
9.47500 7985435.0
9.48500 7663780.0
9.49500 8363030.0
9.50500 8908445.0
9.51500 9272055.0
9.52500 9411905.0
9.53500 9118220.0
9.54500 6838665.0
9.55500 4335350.0
9.56500 4880765.0
9.57500 3929785.0
9.58500 4503170.0
9.59500 4545125.0
9.60500 3971740.0
9.61500 3733995.0
9.62500 4615050.0
9.63500 3943770.0
9.64500 3426325.0
9.65500 3943770.0
9.66500 4796855.0
9.67500 5705880.0
9.68500 4740915.0
9.69500 5272345.0
9.70500 5538060.0
9.71500 5538060.0
9.72500 4307380.0
9.73500 6041520.0
9.74500 3384370.0
9.75500 3384370.0
9.76500 3622115.0
9.77500 3496250.0
9.78500 4643020.0
9.79500 4447230.0
9.80500 3552190.0
9.81500 3146625.0
9.82500 2349480.0
9.83500 2153690.0
9.84500 2769030.0
9.85500 2685120.0
9.86500 3957755.0
9.87500 4503170.0
9.88500 4796855.0
9.89500 5146480.0
9.90500 7943480.0
9.91500 8838520.0
9.92500 7537915.0
9.93500 8307090.0
9.94500 8614760.0
9.95500 8391000.0
9.96500 8726640.0
9.97500 7803630.0
9.98500 7258215.0
9.99500 7370095.0
