-0.02200 175.0
-0.01700 146.0
-0.01200 125.0
-0.00700 165.0
-0.00200 106.0
0.00300 167.0
0.00800 149.0
0.01300 139.0
0.01800 118.0
0.02300 162.0
0.02800 157.0
0.03300 124.0
0.03800 158.0
0.04300 134.0
0.04800 113.0
0.05300 135.0
0.05800 110.0
0.06300 122.0
0.06800 103.0
0.07300 131.0
0.07800 119.0
0.08300 146.0
0.08800 172.0
0.09300 166.0
0.09800 158.0
0.10300 164.0
0.10800 159.0
0.11300 168.0
0.11800 155.0
0.12300 153.0
0.12800 89.0
0.13300 101.0
0.13800 127.0
0.14300 106.0
0.14800 125.0
0.15300 147.0
0.15800 122.0
0.16300 129.0
0.16800 120.0
0.17300 115.0
0.17800 92.0
0.18300 95.0
0.18800 95.0
0.19300 110.0
0.19800 111.0
0.20300 102.0
0.20800 136.0
0.21300 107.0
0.21800 121.0
0.22300 125.0
0.22800 107.0
0.23300 154.0
0.23800 144.0
0.24300 121.0
0.24800 115.0
0.25300 160.0
0.25800 201.0
0.26300 173.0
0.26800 130.0
0.27300 117.0
0.27800 152.0
0.28300 137.0
0.28800 111.0
0.29300 141.0
0.29800 186.0
0.30300 150.0
0.30800 167.0
0.31300 125.0
0.31800 135.0
0.32300 148.0
0.32800 158.0
0.33300 161.0
0.33800 137.0
0.34300 146.0
0.34800 137.0
0.35300 147.0
0.35800 166.0
0.36300 162.0
0.36800 173.0
0.37300 176.0
0.37800 161.0
0.38300 175.0
0.38800 169.0
0.39300 168.0
0.39800 134.0
0.40300 142.0
0.40800 144.0
0.41300 172.0
0.41800 176.0
0.42300 145.0
0.42800 166.0
0.43300 151.0
0.43800 172.0
0.44300 168.0
0.44800 207.0
0.45300 224.0
0.45800 221.0
0.46300 263.0
0.46800 213.0
0.47300 196.0
0.47800 208.0
0.48300 204.0
0.48800 207.0
0.49300 206.0
0.49800 189.0
0.50300 209.0
0.50800 229.0
0.51300 231.0
0.51800 235.0
0.52300 226.0
0.52800 234.0
0.53300 251.0
0.53800 217.0
0.54300 265.0
0.54800 288.0
0.55300 296.0
0.55800 279.0
0.56300 383.0
0.56800 320.0
0.57300 301.0
0.57800 286.0
0.58300 304.0
0.58800 294.0
0.59300 300.0
0.59800 315.0
0.60300 296.0
0.60800 327.0
0.61300 345.0
0.61800 316.0
0.62300 351.0
0.62800 378.0
0.63300 352.0
0.63800 376.0
0.64300 411.0
0.64800 433.0
0.65300 448.0
0.65800 437.0
0.66300 478.0
0.66800 512.0
0.67300 551.0
0.67800 531.0
0.68300 588.0
0.68800 562.0
0.69300 558.0
0.69800 573.0
0.70300 603.0
0.70800 604.0
0.71300 576.0
0.71800 689.0
0.72300 682.0
0.72800 747.0
0.73300 689.0
0.73800 699.0
0.74300 717.0
0.74800 795.0
0.75300 788.0
0.75800 779.0
0.76300 931.0
0.76800 841.0
0.77300 795.0
0.77800 889.0
0.78300 894.0
0.78800 954.0
0.79300 957.0
0.79800 1002.0
0.80300 1010.0
0.80800 1077.0
0.81300 1051.0
0.81800 1167.0
0.82300 1106.0
0.82800 1051.0
0.83300 1001.0
0.83800 1119.0
0.84300 1217.0
0.84800 1231.0
0.85300 1214.0
0.85800 1286.0
0.86300 1423.0
0.86800 1401.0
0.87300 1450.0
0.87800 1644.0
0.88300 1720.0
0.88800 1993.0
0.89300 2087.0
0.89800 2246.0
0.90300 2444.0
0.90800 2796.0
0.91300 3102.0
0.91800 3655.0
0.92300 4376.0
0.92800 5440.0
0.93300 8166.0
0.93800 19969.0
0.94300 86992.0
0.94800 327853.0
0.95300 965106.0
0.95800 2199087.0
0.96300 3258805.0
0.96800 3527772.0
0.97300 3110984.0
0.97800 2466600.0
0.98300 1802223.0
0.98800 1172224.0
0.99300 591391.0
0.99800 187416.0
1.00300 39235.0
1.00800 9475.0
1.01300 5374.0
1.01800 4255.0
1.02300 3568.0
1.02800 2955.0
1.03300 2540.0
1.03800 2156.0
1.04300 2090.0
1.04800 1826.0
1.05300 1748.0
1.05800 1614.0
1.06300 1542.0
1.06800 1375.0
1.07300 1314.0
1.07800 1177.0
1.08300 1140.0
1.08800 1144.0
1.09300 1121.0
1.09800 1121.0
1.10300 1116.0
1.10800 1046.0
1.11300 1032.0
1.11800 983.0
1.12300 966.0
1.12800 901.0
1.13300 842.0
1.13800 839.0
1.14300 805.0
1.14800 745.0
1.15300 781.0
1.15800 798.0
1.16300 754.0
1.16800 800.0
1.17300 776.0
1.17800 694.0
1.18300 715.0
1.18800 710.0
1.19300 626.0
1.19800 641.0
1.20300 752.0
1.20800 711.0
1.21300 721.0
1.21800 650.0
1.22300 653.0
1.22800 586.0
1.23300 557.0
1.23800 551.0
1.24300 496.0
1.24800 488.0
1.25300 562.0
1.25800 512.0
1.26300 442.0
1.26800 454.0
1.27300 474.0
1.27800 455.0
1.28300 618.0
1.28800 444.0
1.29300 445.0
1.29800 439.0
1.30300 469.0
1.30800 386.0
1.31300 421.0
1.31800 410.0
1.32300 397.0
1.32800 428.0
1.33300 401.0
1.33800 341.0
1.34300 329.0
1.34800 354.0
1.35300 329.0
1.35800 220.0
1.36300 304.0
1.36800 299.0
1.37300 325.0
1.37800 281.0
1.38300 281.0
1.38800 238.0
1.39300 230.0
1.39800 244.0
1.40300 209.0
1.40800 263.0
1.41300 239.0
1.41800 253.0
1.42300 233.0
1.42800 250.0
1.43300 225.0
1.43800 258.0
1.44300 232.0
1.44800 240.0
1.45300 231.0
1.45800 237.0
1.46300 197.0
1.46800 178.0
1.47300 163.0
1.47800 174.0
1.48300 143.0
1.48800 166.0
1.49300 165.0
1.49800 153.0
1.50300 140.0
1.50800 162.0
1.51300 114.0
1.51800 132.0
1.52300 126.0
1.52800 142.0
1.53300 136.0
1.53800 140.0
1.54300 149.0
1.54800 158.0
1.55300 168.0
1.55800 242.0
1.56300 164.0
1.56800 179.0
1.57300 228.0
1.57800 194.0
1.58300 210.0
1.58800 219.0
1.59300 218.0
1.59800 185.0
1.60300 227.0
1.60800 246.0
1.61300 257.0
1.61800 250.0
1.62300 192.0
1.62800 178.0
1.63300 172.0
1.63800 216.0
1.64300 215.0
1.64800 206.0
1.65300 203.0
1.65800 293.0
1.66300 233.0
1.66800 168.0
1.67300 169.0
1.67800 138.0
1.68300 173.0
1.68800 144.0
1.69300 166.0
1.69800 233.0
1.70300 192.0
1.70800 267.0
1.71300 219.0
1.71800 173.0
1.72300 157.0
1.72800 130.0
1.73300 169.0
1.73800 183.0
1.74300 178.0
1.74800 92.0
1.75300 104.0
1.75800 123.0
1.76300 137.0
1.76800 164.0
1.77300 155.0
1.77800 157.0
1.78300 107.0
1.78800 141.0
1.79300 115.0
1.79800 145.0
1.80300 115.0
1.80800 90.0
1.81300 103.0
1.81800 167.0
1.82300 139.0
1.82800 134.0
1.83300 188.0
1.83800 130.0
1.84300 189.0
1.84800 131.0
1.85300 119.0
1.85800 124.0
1.86300 119.0
1.86800 132.0
1.87300 157.0
1.87800 187.0
1.88300 137.0
1.88800 120.0
1.89300 144.0
1.89800 158.0
1.90300 146.0
1.90800 141.0
1.91300 178.0
1.91800 201.0
1.92300 166.0
1.92800 179.0
1.93300 172.0
1.93800 206.0
1.94300 204.0
1.94800 214.0
1.95300 202.0
1.95800 273.0
