0.00500 35515680.0
0.01500 39539004.0
0.02500 30669996.0
0.03500 19278754.0
0.04500 10867701.0
0.05500 6645762.0
0.06500 5321299.0
0.07500 5459859.0
0.08500 6130802.0
0.09500 6825439.0
0.10500 7480020.0
0.11500 8191408.0
0.12500 8804939.0
0.13500 9479436.0
0.14500 10163547.0
0.15500 10646997.0
0.16500 11365397.0
0.17500 11893028.0
0.18500 12571037.0
0.19500 13210841.0
0.20500 13709108.0
0.21500 14323332.0
0.22500 14829864.0
0.23500 15282970.0
0.24500 15966407.0
0.25500 16348545.0
0.26500 16979114.0
0.27500 17348320.0
0.28500 17728348.0
0.29500 18328436.0
0.30500 18660376.0
0.31500 19208508.0
0.32500 19646868.0
0.33500 19852096.0
0.34500 20519022.0
0.35500 20815952.0
0.36500 21235604.0
0.37500 21679142.0
0.38500 21768996.0
0.39500 22268432.0
0.40500 22454554.0
0.41500 22671620.0
0.42500 23168422.0
0.43500 23166156.0
0.44500 23268732.0
0.45500 23496984.0
0.46500 23622852.0
0.47500 24011432.0
0.48500 24107478.0
0.49500 24279332.0
0.50500 24630750.0
0.51500 24401954.0
0.52500 24634028.0
0.53500 24245748.0
0.54500 24205308.0
0.55500 24434364.0
0.56500 24123662.0
0.57500 24415206.0
0.58500 24291128.0
0.59500 23964064.0
0.60500 23941592.0
0.61500 23682108.0
0.62500 23584480.0
0.63500 23043192.0
0.64500 22379344.0
0.65500 21890984.0
0.66500 21012978.0
0.67500 20171324.0
0.68500 18944526.0
0.69500 17365180.0
0.70500 16082639.0
0.71500 14554730.0
0.72500 13176780.0
0.73500 11751811.0
0.74500 10378103.0
0.75500 9374765.0
0.76500 8340993.0
0.77500 7481137.0
0.78500 6725657.0
0.79500 6002363.0
0.80500 5469161.0
0.81500 4976235.0
0.82500 4524316.0
0.83500 4178930.0
0.84500 3799232.0
0.85500 3537292.0
0.86500 3274063.0
0.87500 3026469.0
0.88500 2813722.0
0.89500 2588673.0
0.90500 2422234.0
0.91500 2268884.0
0.92500 2112492.0
0.93500 1969871.0
0.94500 1819180.0
0.95500 1703123.0
0.96500 1613345.0
0.97500 1505481.0
0.98500 1424183.0
0.99500 1331804.0
1.00500 1254412.0
1.01500 1197611.0
1.02500 1126351.0
1.03500 1060382.0
1.04500 1007748.0
1.05500 950765.0
1.06500 898761.0
1.07500 849744.0
1.08500 804958.0
1.09500 767200.0
1.10500 727559.0
1.11500 686082.0
1.12500 656200.0
1.13500 629105.0
1.14500 599557.0
1.15500 570012.0
1.16500 540846.0
1.17500 511731.0
1.18500 489555.0
1.19500 469458.0
1.20500 447778.0
1.21500 427835.0
1.22500 408014.0
1.23500 388254.0
1.24500 373345.0
1.25500 355328.0
1.26500 340650.0
1.27500 326349.0
1.28500 311239.0
1.29500 298562.0
1.30500 284424.0
1.31500 271698.0
1.32500 261479.0
1.33500 249785.0
1.34500 241268.0
1.35500 230420.0
1.36500 221422.0
1.37500 212551.0
1.38500 205648.0
1.39500 197378.0
1.40500 188365.0
1.41500 181680.0
1.42500 175384.0
1.43500 169468.0
1.44500 164005.0
1.45500 157793.0
1.46500 152458.0
1.47500 145185.0
1.48500 140852.0
1.49500 135089.0
1.50500 130545.0
1.51500 127042.0
1.52500 122894.0
1.53500 117607.0
1.54500 113931.0
1.55500 110768.0
1.56500 106458.0
1.57500 103560.0
1.58500 99660.0
1.59500 96749.0
1.60500 94294.0
1.61500 91286.0
1.62500 88886.0
1.63500 86565.0
1.64500 83439.0
1.65500 81490.0
1.66500 78785.0
1.67500 76375.0
1.68500 74137.0
1.69500 72353.0
1.70500 70938.0
1.71500 68762.0
1.72500 66941.0
1.73500 65293.0
1.74500 62826.0
1.75500 61524.0
1.76500 60491.0
1.77500 59594.0
1.78500 58755.0
1.79500 56902.0
1.80500 55566.0
1.81500 55085.0
1.82500 54001.0
1.83500 53391.0
1.84500 52120.0
1.85500 51190.0
1.86500 50995.0
1.87500 49480.0
1.88500 49487.0
1.89500 48720.0
1.90500 48701.0
1.91500 47996.0
1.92500 47658.0
1.93500 48047.0
1.94500 47847.0
1.95500 48166.0
1.96500 47984.0
1.97500 48335.0
1.98500 48342.0
1.99500 49288.0
2.00500 50009.0
2.01500 50959.0
2.02500 51329.0
2.03500 52646.0
2.04500 53287.0
2.05500 54793.0
2.06500 56256.0
2.07500 58299.0
2.08500 59987.0
2.09500 61525.0
2.10500 64166.0
2.11500 67182.0
2.12500 70067.0
2.13500 74068.0
2.14500 78072.0
2.15500 82926.0
2.16500 91301.0
2.17500 103725.0
2.18500 122080.0
2.19500 152751.0
2.20500 209485.0
2.21500 305054.0
2.22500 450094.0
2.23500 608980.0
2.24500 766519.0
2.25500 898574.0
2.26500 989049.0
2.27500 1041719.0
2.28500 1059367.0
2.29500 1056072.0
2.30500 1030911.0
2.31500 993164.0
2.32500 948287.0
2.33500 900813.0
2.34500 850605.0
2.35500 796784.0
2.36500 753371.0
2.37500 698739.0
2.38500 653923.0
2.39500 611376.0
2.40500 564441.0
2.41500 531886.0
2.42500 489248.0
2.43500 452641.0
2.44500 423914.0
2.45500 387127.0
2.46500 358574.0
2.47500 329158.0
2.48500 302020.0
2.49500 282421.0
2.50500 255816.0
2.51500 234068.0
2.52500 211734.0
2.53500 192502.0
2.54500 177207.0
2.55500 162764.0
2.56500 150415.0
2.57500 140708.0
2.58500 130161.0
2.59500 122165.0
2.60500 114098.0
2.61500 107866.0
2.62500 101184.0
2.63500 95857.0
2.64500 91605.0
2.65500 87934.0
2.66500 83382.0
2.67500 79864.0
2.68500 77640.0
2.69500 74724.0
2.70500 72091.0
2.71500 69113.0
2.72500 66879.0
2.73500 65087.0
2.74500 62721.0
2.75500 60228.0
2.76500 58307.0
2.77500 56411.0
2.78500 54723.0
2.79500 52520.0
2.80500 50206.0
2.81500 49438.0
2.82500 47283.0
2.83500 45930.0
2.84500 44789.0
2.85500 43213.0
2.86500 42356.0
2.87500 40617.0
2.88500 39676.0
2.89500 38775.0
2.90500 37463.0
2.91500 37154.0
2.92500 35655.0
2.93500 35249.0
2.94500 34779.0
2.95500 33488.0
2.96500 32574.0
2.97500 31816.0
2.98500 30655.0
2.99500 29815.0
3.00500 28655.0
3.01500 28270.0
3.02500 27409.0
3.03500 26514.0
3.04500 26285.0
3.05500 25216.0
3.06500 25169.0
3.07500 24760.0
3.08500 24302.0
3.09500 23622.0
3.10500 23245.0
3.11500 22754.0
3.12500 22135.0
3.13500 21621.0
3.14500 21436.0
3.15500 20991.0
3.16500 20434.0
3.17500 20129.0
3.18500 19338.0
3.19500 18783.0
3.20500 18605.0
3.21500 17898.0
3.22500 17655.0
3.23500 17266.0
3.24500 16787.0
3.25500 16630.0
3.26500 16095.0
3.27500 15756.0
3.28500 15688.0
3.29500 15388.0
3.30500 15169.0
3.31500 14574.0
3.32500 14190.0
3.33500 14202.0
3.34500 13916.0
3.35500 13604.0
3.36500 13117.0
3.37500 12722.0
3.38500 12610.0
3.39500 12240.0
3.40500 12140.0
3.41500 11834.0
3.42500 11393.0
3.43500 11336.0
3.44500 10950.0
3.45500 11043.0
3.46500 10499.0
3.47500 10340.0
3.48500 10136.0
3.49500 9706.0
3.50500 9528.0
3.51500 9403.0
3.52500 9032.0
3.53500 8731.0
3.54500 8735.0
3.55500 8508.0
3.56500 8365.0
3.57500 7910.0
3.58500 7909.0
3.59500 7689.0
3.60500 7486.0
3.61500 7434.0
3.62500 7157.0
3.63500 7099.0
3.64500 6785.0
3.65500 6822.0
3.66500 6588.0
3.67500 6388.0
3.68500 6393.0
3.69500 6243.0
3.70500 6190.0
3.71500 5842.0
3.72500 5845.0
3.73500 5731.0
3.74500 5557.0
3.75500 5487.0
3.76500 5299.0
3.77500 5154.0
3.78500 5015.0
3.79500 5083.0
3.80500 4914.0
3.81500 4872.0
3.82500 4771.0
3.83500 4497.0
3.84500 4596.0
3.85500 4272.0
3.86500 4209.0
3.87500 4205.0
3.88500 4116.0
3.89500 4003.0
3.90500 3933.0
3.91500 3876.0
3.92500 3514.0
3.93500 3535.0
3.94500 3693.0
3.95500 3422.0
3.96500 3247.0
3.97500 3257.0
3.98500 3174.0
3.99500 3093.0
4.00500 3079.0
4.01500 3075.0
4.02500 2954.0
4.03500 2841.0
4.04500 2759.0
4.05500 2622.0
4.06500 2538.0
4.07500 2477.0
4.08500 2408.0
4.09500 2355.0
4.10500 2279.0
4.11500 2258.0
4.12500 2213.0
4.13500 2031.0
4.14500 2090.0
4.15500 2104.0
4.16500 1992.0
4.17500 2010.0
4.18500 1919.0
4.19500 1812.0
4.20500 1859.0
4.21500 1789.0
4.22500 1750.0
4.23500 1753.0
4.24500 1691.0
4.25500 1819.0
4.26500 1828.0
4.27500 2058.0
4.28500 2484.0
4.29500 3327.0
4.30500 4596.0
4.31500 6196.0
4.32500 8108.0
4.33500 9974.0
4.34500 10955.0
4.35500 11913.0
4.36500 12638.0
4.37500 13010.0
4.38500 12531.0
4.39500 12455.0
4.40500 11536.0
4.41500 10772.0
4.42500 9995.0
4.43500 9028.0
4.44500 8684.0
4.45500 7913.0
4.46500 7481.0
4.47500 6820.0
4.48500 6147.0
4.49500 5857.0
4.50500 5580.0
4.51500 5050.0
4.52500 4751.0
4.53500 4608.0
4.54500 4436.0
4.55500 4171.0
4.56500 3989.0
4.57500 3639.0
4.58500 3537.0
4.59500 3305.0
4.60500 3096.0
4.61500 2986.0
4.62500 2902.0
4.63500 2702.0
4.64500 2677.0
4.65500 2581.0
4.66500 2476.0
4.67500 2368.0
4.68500 2200.0
4.69500 2198.0
4.70500 2148.0
4.71500 2027.0
4.72500 1975.0
4.73500 1936.0
4.74500 1772.0
4.75500 1676.0
4.76500 1716.0
4.77500 1639.0
4.78500 1618.0
4.79500 1610.0
4.80500 1435.0
4.81500 1420.0
4.82500 1441.0
4.83500 1360.0
4.84500 1319.0
4.85500 1257.0
4.86500 1250.0
4.87500 1241.0
4.88500 1266.0
4.89500 1193.0
4.90500 1146.0
4.91500 1143.0
4.92500 1067.0
4.93500 1028.0
4.94500 1032.0
4.95500 1038.0
4.96500 990.0
4.97500 981.0
4.98500 939.0
4.99500 927.0
5.00500 838.0
5.01500 888.0
5.02500 851.0
5.03500 851.0
5.04500 807.0
5.05500 827.0
5.06500 791.0
5.07500 740.0
5.08500 735.0
5.09500 715.0
5.10500 694.0
5.11500 675.0
5.12500 648.0
5.13500 631.0
5.14500 618.0
5.15500 634.0
5.16500 609.0
5.17500 601.0
5.18500 577.0
5.19500 609.0
5.20500 587.0
5.21500 621.0
5.22500 551.0
5.23500 535.0
5.24500 535.0
5.25500 528.0
5.26500 510.0
5.27500 526.0
5.28500 476.0
5.29500 467.0
5.30500 478.0
5.31500 488.0
5.32500 429.0
5.33500 446.0
5.34500 443.0
5.35500 446.0
5.36500 409.0
5.37500 422.0
5.38500 407.0
5.39500 399.0
5.40500 389.0
5.41500 372.0
5.42500 388.0
5.43500 357.0
5.44500 374.0
5.45500 387.0
5.46500 338.0
5.47500 367.0
5.48500 358.0
5.49500 349.0
5.50500 315.0
5.51500 345.0
5.52500 331.0
5.53500 332.0
5.54500 285.0
5.55500 300.0
5.56500 325.0
5.57500 265.0
5.58500 278.0
5.59500 247.0
5.60500 290.0
5.61500 264.0
5.62500 306.0
5.63500 264.0
5.64500 290.0
5.65500 278.0
5.66500 283.0
5.67500 247.0
5.68500 233.0
5.69500 288.0
5.70500 243.0
5.71500 263.0
5.72500 231.0
5.73500 255.0
5.74500 252.0
5.75500 226.0
5.76500 223.0
5.77500 230.0
5.78500 196.0
5.79500 219.0
5.80500 184.0
5.81500 224.0
5.82500 190.0
5.83500 201.0
5.84500 191.0
5.85500 194.0
5.86500 217.0
5.87500 225.0
5.88500 184.0
5.89500 214.0
5.90500 211.0
5.91500 180.0
5.92500 193.0
5.93500 192.0
5.94500 197.0
5.95500 186.0
5.96500 181.0
5.97500 201.0
5.98500 192.0
5.99500 197.0
6.00500 179.0
6.01500 191.0
6.02500 173.0
6.03500 167.0
6.04500 181.0
6.05500 154.0
6.06500 199.0
6.07500 176.0
6.08500 184.0
6.09500 173.0
6.10500 148.0
6.11500 164.0
6.12500 151.0
6.13500 170.0
6.14500 122.0
6.15500 132.0
6.16500 162.0
6.17500 167.0
6.18500 171.0
6.19500 163.0
6.20500 153.0
6.21500 153.0
6.22500 166.0
6.23500 173.0
6.24500 165.0
6.25500 161.0
6.26500 151.0
6.27500 181.0
6.28500 169.0
6.29500 185.0
6.30500 163.0
6.31500 161.0
6.32500 193.0
6.33500 170.0
6.34500 175.0
6.35500 181.0
6.36500 162.0
6.37500 194.0
6.38500 233.0
6.39500 258.0
6.40500 324.0
6.41500 503.0
6.42500 688.0
6.43500 959.0
6.44500 1264.0
6.45500 1459.0
6.46500 1501.0
6.47500 1721.0
6.48500 1777.0
6.49500 1777.0
6.50500 1776.0
6.51500 1692.0
6.52500 1550.0
6.53500 1459.0
6.54500 1305.0
6.55500 1254.0
6.56500 1104.0
6.57500 1018.0
6.58500 980.0
6.59500 849.0
6.60500 818.0
6.61500 739.0
6.62500 686.0
6.63500 639.0
6.64500 585.0
6.65500 522.0
6.66500 464.0
6.67500 511.0
6.68500 453.0
6.69500 428.0
6.70500 430.0
6.71500 407.0
6.72500 389.0
6.73500 347.0
6.74500 333.0
6.75500 328.0
6.76500 290.0
6.77500 327.0
6.78500 289.0
6.79500 303.0
6.80500 263.0
6.81500 262.0
6.82500 271.0
6.83500 291.0
6.84500 285.0
6.85500 252.0
6.86500 255.0
6.87500 252.0
6.88500 248.0
6.89500 226.0
6.90500 241.0
6.91500 222.0
6.92500 219.0
6.93500 217.0
6.94500 209.0
6.95500 218.0
6.96500 183.0
6.97500 189.0
6.98500 184.0
6.99500 162.0
7.00500 176.0
7.01500 165.0
7.02500 144.0
7.03500 154.0
7.04500 174.0
7.05500 159.0
7.06500 174.0
7.07500 182.0
7.08500 141.0
7.09500 171.0
7.10500 160.0
7.11500 134.0
7.12500 155.0
7.13500 170.0
7.14500 123.0
7.15500 141.0
7.16500 119.0
7.17500 156.0
7.18500 123.0
7.19500 134.0
7.20500 136.0
7.21500 128.0
7.22500 119.0
7.23500 142.0
7.24500 123.0
7.25500 134.0
7.26500 127.0
7.27500 142.0
7.28500 127.0
7.29500 106.0
7.30500 138.0
7.31500 114.0
7.32500 134.0
7.33500 113.0
7.34500 109.0
7.35500 127.0
7.36500 128.0
7.37500 133.0
7.38500 113.0
7.39500 148.0
7.40500 115.0
7.41500 107.0
7.42500 93.0
7.43500 78.0
7.44500 118.0
7.45500 105.0
7.46500 111.0
7.47500 98.0
7.48500 115.0
7.49500 97.0
7.50500 103.0
7.51500 99.0
7.52500 112.0
7.53500 101.0
7.54500 95.0
7.55500 93.0
7.56500 112.0
7.57500 117.0
7.58500 125.0
7.59500 109.0
7.60500 103.0
7.61500 133.0
7.62500 101.0
7.63500 106.0
7.64500 99.0
7.65500 101.0
7.66500 96.0
7.67500 88.0
7.68500 84.0
7.69500 98.0
7.70500 104.0
7.71500 98.0
7.72500 94.0
7.73500 88.0
7.74500 97.0
7.75500 106.0
7.76500 104.0
7.77500 107.0
7.78500 100.0
7.79500 95.0
7.80500 87.0
7.81500 75.0
7.82500 103.0
7.83500 101.0
7.84500 84.0
7.85500 90.0
7.86500 81.0
7.87500 103.0
7.88500 96.0
7.89500 106.0
7.90500 85.0
7.91500 99.0
7.92500 87.0
7.93500 107.0
7.94500 145.0
7.95500 127.0
7.96500 132.0
7.97500 117.0
7.98500 115.0
7.99500 96.0
8.00500 99.0
8.01500 94.0
8.02500 99.0
8.03500 97.0
8.04500 86.0
8.05500 78.0
8.06500 83.0
8.07500 87.0
8.08500 96.0
8.09500 88.0
8.10500 85.0
8.11500 88.0
8.12500 95.0
8.13500 98.0
8.14500 83.0
8.15500 102.0
8.16500 107.0
8.17500 86.0
8.18500 73.0
8.19500 96.0
8.20500 90.0
8.21500 105.0
8.22500 90.0
8.23500 64.0
8.24500 87.0
8.25500 91.0
8.26500 105.0
8.27500 111.0
8.28500 112.0
8.29500 84.0
8.30500 106.0
8.31500 83.0
8.32500 87.0
8.33500 83.0
8.34500 68.0
8.35500 66.0
8.36500 65.0
8.37500 64.0
8.38500 61.0
8.39500 63.0
8.40500 77.0
8.41500 71.0
8.42500 69.0
8.43500 72.0
8.44500 59.0
8.45500 59.0
8.46500 59.0
8.47500 49.0
8.48500 76.0
8.49500 67.0
8.50500 64.0
8.51500 64.0
8.52500 78.0
8.53500 49.0
8.54500 79.0
8.55500 92.0
8.56500 109.0
8.57500 98.0
8.58500 138.0
8.59500 132.0
8.60500 119.0
8.61500 133.0
8.62500 136.0
8.63500 130.0
8.64500 131.0
8.65500 122.0
8.66500 127.0
8.67500 106.0
8.68500 113.0
8.69500 142.0
8.70500 110.0
8.71500 105.0
8.72500 98.0
8.73500 96.0
8.74500 98.0
8.75500 109.0
8.76500 104.0
8.77500 83.0
8.78500 86.0
8.79500 78.0
8.80500 79.0
8.81500 80.0
8.82500 63.0
8.83500 56.0
8.84500 85.0
8.85500 64.0
8.86500 84.0
8.87500 90.0
8.88500 106.0
8.89500 79.0
8.90500 80.0
8.91500 79.0
8.92500 72.0
8.93500 65.0
8.94500 78.0
8.95500 86.0
8.96500 75.0
8.97500 104.0
8.98500 106.0
8.99500 92.0
9.00500 49.0
9.01500 65.0
9.02500 82.0
9.03500 76.0
9.04500 94.0
9.05500 86.0
9.06500 84.0
9.07500 69.0
9.08500 76.0
9.09500 74.0
9.10500 109.0
9.11500 69.0
9.12500 72.0
9.13500 73.0
9.14500 91.0
9.15500 83.0
9.16500 72.0
9.17500 84.0
9.18500 58.0
9.19500 82.0
9.20500 85.0
9.21500 79.0
9.22500 83.0
9.23500 84.0
9.24500 92.0
9.25500 62.0
9.26500 81.0
9.27500 48.0
9.28500 57.0
9.29500 59.0
9.30500 67.0
9.31500 82.0
9.32500 70.0
9.33500 86.0
9.34500 58.0
9.35500 67.0
9.36500 60.0
9.37500 61.0
9.38500 71.0
9.39500 66.0
9.40500 76.0
9.41500 77.0
9.42500 70.0
9.43500 69.0
9.44500 70.0
9.45500 102.0
9.46500 82.0
9.47500 73.0
9.48500 64.0
9.49500 77.0
9.50500 69.0
9.51500 69.0
9.52500 57.0
9.53500 65.0
9.54500 76.0
9.55500 49.0
9.56500 62.0
9.57500 84.0
9.58500 68.0
9.59500 76.0
9.60500 45.0
9.61500 50.0
9.62500 48.0
9.63500 60.0
9.64500 80.0
9.65500 66.0
9.66500 55.0
9.67500 49.0
9.68500 55.0
9.69500 64.0
9.70500 51.0
9.71500 70.0
9.72500 54.0
9.73500 45.0
9.74500 64.0
9.75500 64.0
9.76500 61.0
9.77500 75.0
9.78500 92.0
9.79500 54.0
9.80500 68.0
9.81500 66.0
9.82500 63.0
9.83500 72.0
9.84500 62.0
9.85500 65.0
9.86500 59.0
9.87500 71.0
9.88500 65.0
9.89500 53.0
9.90500 69.0
9.91500 64.0
9.92500 66.0
9.93500 44.0
9.94500 59.0
9.95500 57.0
9.96500 32.0
9.97500 48.0
9.98500 47.0
9.99500 50.0
