0.00500 38368736.0
0.01500 44420144.0
0.02500 38616560.0
0.03500 26396904.0
0.04500 13938338.0
0.05500 6152119.0
0.06500 3182558.0
0.07500 2878549.0
0.08500 3133376.0
0.09500 3519019.0
0.10500 3951771.0
0.11500 4329305.0
0.12500 4757255.0
0.13500 5149062.0
0.14500 5571253.0
0.15500 5983939.0
0.16500 6420627.0
0.17500 6854082.0
0.18500 7248402.0
0.19500 7634528.0
0.20500 8116238.0
0.21500 8454691.0
0.22500 8887588.0
0.23500 9255117.0
0.24500 9703268.0
0.25500 10171331.0
0.26500 10522550.0
0.27500 10910457.0
0.28500 11312321.0
0.29500 11708257.0
0.30500 12161064.0
0.31500 12495042.0
0.32500 12817971.0
0.33500 13287464.0
0.34500 13558686.0
0.35500 13909220.0
0.36500 14197782.0
0.37500 14497037.0
0.38500 14956278.0
0.39500 15196224.0
0.40500 15556973.0
0.41500 15861927.0
0.42500 16163749.0
0.43500 16514299.0
0.44500 16761473.0
0.45500 17152960.0
0.46500 17403044.0
0.47500 17631916.0
0.48500 17950212.0
0.49500 18184170.0
0.50500 18539116.0
0.51500 18819412.0
0.52500 19102588.0
0.53500 19360492.0
0.54500 19505448.0
0.55500 19603378.0
0.56500 19819328.0
0.57500 20033642.0
0.58500 20223830.0
0.59500 20365688.0
0.60500 20509712.0
0.61500 20609684.0
0.62500 20632836.0
0.63500 20552934.0
0.64500 20488788.0
0.65500 20214864.0
0.66500 19889088.0
0.67500 19092342.0
0.68500 17627468.0
0.69500 15675782.0
0.70500 13141496.0
0.71500 10846982.0
0.72500 9020621.0
0.73500 7590447.0
0.74500 6557445.0
0.75500 5724191.0
0.76500 5069845.0
0.77500 4548020.0
0.78500 4071053.0
0.79500 3673676.0
0.80500 3339695.0
0.81500 3041600.0
0.82500 2796883.0
0.83500 2577815.0
0.84500 2386482.0
0.85500 2221871.0
0.86500 2055033.0
0.87500 1926300.0
0.88500 1787456.0
0.89500 1671721.0
0.90500 1574426.0
0.91500 1488098.0
0.92500 1402266.0
0.93500 1318839.0
0.94500 1244287.0
0.95500 1172338.0
0.96500 1113338.0
0.97500 1052274.0
0.98500 991243.0
0.99500 943634.0
1.00500 896872.0
1.01500 856193.0
1.02500 815278.0
1.03500 778352.0
1.04500 738110.0
1.05500 707522.0
1.06500 668045.0
1.07500 637017.0
1.08500 612325.0
1.09500 587122.0
1.10500 562947.0
1.11500 536723.0
1.12500 514402.0
1.13500 492462.0
1.14500 474112.0
1.15500 457605.0
1.16500 440116.0
1.17500 422878.0
1.18500 407402.0
1.19500 390783.0
1.20500 388965.0
1.21500 367366.0
1.22500 354765.0
1.23500 342889.0
1.24500 328748.0
1.25500 319897.0
1.26500 309810.0
1.27500 298394.0
1.28500 290484.0
1.29500 281929.0
1.30500 272948.0
1.31500 265326.0
1.32500 257598.0
1.33500 249410.0
1.34500 242958.0
1.35500 238682.0
1.36500 232964.0
1.37500 225227.0
1.38500 218598.0
1.39500 213074.0
1.40500 206203.0
1.41500 200595.0
1.42500 196001.0
1.43500 192284.0
1.44500 187832.0
1.45500 184979.0
1.46500 181816.0
1.47500 177298.0
1.48500 174259.0
1.49500 171068.0
1.50500 168306.0
1.51500 164615.0
1.52500 161648.0
1.53500 158958.0
1.54500 156892.0
1.55500 153111.0
1.56500 152198.0
1.57500 151041.0
1.58500 150534.0
1.59500 149788.0
1.60500 147467.0
1.61500 147160.0
1.62500 145408.0
1.63500 144955.0
1.64500 145073.0
1.65500 144350.0
1.66500 145600.0
1.67500 147290.0
1.68500 148371.0
1.69500 149546.0
1.70500 149863.0
1.71500 149649.0
1.72500 149618.0
1.73500 150017.0
1.74500 149242.0
1.75500 151614.0
1.76500 155402.0
1.77500 161263.0
1.78500 167625.0
1.79500 172885.0
1.80500 177823.0
1.81500 185411.0
1.82500 193279.0
1.83500 205087.0
1.84500 217490.0
1.85500 226844.0
1.86500 243680.0
1.87500 263613.0
1.88500 288702.0
1.89500 316787.0
1.90500 355408.0
1.91500 402439.0
1.92500 463128.0
1.93500 548752.0
1.94500 675078.0
1.95500 874482.0
1.96500 1225112.0
1.97500 1855394.0
1.98500 3093512.0
1.99500 5875484.0
2.00500 10464670.0
2.01500 15988935.0
2.02500 18799268.0
2.03500 16595339.0
2.04500 10554770.0
2.05500 5122644.0
2.06500 2264634.0
2.07500 1129461.0
2.08500 687199.0
2.09500 456624.0
2.10500 323386.0
2.11500 238962.0
2.12500 179762.0
2.13500 139099.0
2.14500 110774.0
2.15500 91491.0
2.16500 75863.0
2.17500 63680.0
2.18500 54759.0
2.19500 47358.0
2.20500 39943.0
2.21500 35349.0
2.22500 31090.0
2.23500 27387.0
2.24500 23732.0
2.25500 20714.0
2.26500 18025.0
2.27500 16122.0
2.28500 15121.0
2.29500 13619.0
2.30500 12461.0
2.31500 11470.0
2.32500 10247.0
2.33500 9022.0
2.34500 8378.0
2.35500 7443.0
2.36500 6892.0
2.37500 6434.0
2.38500 5987.0
2.39500 5745.0
2.40500 5487.0
2.41500 5255.0
2.42500 5007.0
2.43500 4602.0
2.44500 4463.0
2.45500 4353.0
2.46500 4062.0
2.47500 3974.0
2.48500 3837.0
2.49500 3705.0
2.50500 3531.0
2.51500 3321.0
2.52500 3260.0
2.53500 3005.0
2.54500 2949.0
2.55500 2932.0
2.56500 2770.0
2.57500 2705.0
2.58500 2714.0
2.59500 2639.0
2.60500 2543.0
2.61500 2427.0
2.62500 2298.0
2.63500 2248.0
2.64500 2308.0
2.65500 2219.0
2.66500 2021.0
2.67500 2030.0
2.68500 1943.0
2.69500 1957.0
2.70500 1932.0
2.71500 1917.0
2.72500 2018.0
2.73500 1905.0
2.74500 1882.0
2.75500 1846.0
2.76500 1895.0
2.77500 1835.0
2.78500 1787.0
2.79500 1739.0
2.80500 1717.0
2.81500 1634.0
2.82500 1602.0
2.83500 1534.0
2.84500 1521.0
2.85500 1540.0
2.86500 1559.0
2.87500 1496.0
2.88500 1488.0
2.89500 1497.0
2.90500 1382.0
2.91500 1472.0
2.92500 1403.0
2.93500 1500.0
2.94500 1497.0
2.95500 1443.0
2.96500 1459.0
2.97500 1353.0
2.98500 1328.0
2.99500 1285.0
3.00500 1268.0
3.01500 1304.0
3.02500 1368.0
3.03500 1350.0
3.04500 1295.0
3.05500 1221.0
3.06500 1219.0
3.07500 1211.0
3.08500 1156.0
3.09500 1182.0
3.10500 1214.0
3.11500 1142.0
3.12500 1212.0
3.13500 1180.0
3.14500 1093.0
3.15500 1111.0
3.16500 1142.0
3.17500 1065.0
3.18500 1034.0
3.19500 1041.0
3.20500 1035.0
3.21500 1083.0
3.22500 998.0
3.23500 1017.0
3.24500 1056.0
3.25500 961.0
3.26500 1037.0
3.27500 1061.0
3.28500 1026.0
3.29500 934.0
3.30500 1019.0
3.31500 994.0
3.32500 1016.0
3.33500 906.0
3.34500 869.0
3.35500 865.0
3.36500 944.0
3.37500 928.0
3.38500 927.0
3.39500 882.0
3.40500 832.0
3.41500 765.0
3.42500 805.0
3.43500 790.0
3.44500 751.0
3.45500 831.0
3.46500 781.0
3.47500 866.0
3.48500 970.0
3.49500 928.0
3.50500 856.0
3.51500 753.0
3.52500 683.0
3.53500 586.0
3.54500 542.0
3.55500 622.0
3.56500 620.0
3.57500 551.0
3.58500 559.0
3.59500 569.0
3.60500 525.0
3.61500 565.0
3.62500 480.0
3.63500 505.0
3.64500 495.0
3.65500 534.0
3.66500 605.0
3.67500 727.0
3.68500 857.0
3.69500 1027.0
3.70500 1126.0
3.71500 1185.0
3.72500 1285.0
3.73500 1495.0
3.74500 1772.0
3.75500 2061.0
3.76500 2667.0
3.77500 3790.0
3.78500 5433.0
3.79500 8630.0
3.80500 14429.0
3.81500 25997.0
3.82500 52043.0
3.83500 140809.0
3.84500 356516.0
3.85500 643789.0
3.86500 811059.0
3.87500 677131.0
3.88500 407445.0
3.89500 198821.0
3.90500 100211.0
3.91500 54030.0
3.92500 32430.0
3.93500 22485.0
3.94500 16778.0
3.95500 13382.0
3.96500 10705.0
3.97500 9069.0
3.98500 7944.0
3.99500 7007.0
4.00500 6362.0
4.01500 5563.0
4.02500 5333.0
4.03500 4912.0
4.04500 4580.0
4.05500 4331.0
4.06500 3999.0
4.07500 3797.0
4.08500 3743.0
4.09500 3488.0
4.10500 3387.0
4.11500 3107.0
4.12500 3051.0
4.13500 2806.0
4.14500 2805.0
4.15500 2691.0
4.16500 2555.0
4.17500 2445.0
4.18500 2421.0
4.19500 2326.0
4.20500 2268.0
4.21500 2097.0
4.22500 2112.0
4.23500 2024.0
4.24500 1975.0
4.25500 1890.0
4.26500 1898.0
4.27500 1892.0
4.28500 1811.0
4.29500 1875.0
4.30500 1770.0
4.31500 1812.0
4.32500 1837.0
4.33500 1751.0
4.34500 1627.0
4.35500 1651.0
4.36500 1580.0
4.37500 1521.0
4.38500 1458.0
4.39500 1543.0
4.40500 1487.0
4.41500 1434.0
4.42500 1426.0
4.43500 1474.0
4.44500 1481.0
4.45500 1351.0
4.46500 1459.0
4.47500 1413.0
4.48500 1331.0
4.49500 1334.0
4.50500 1245.0
4.51500 1243.0
4.52500 1218.0
4.53500 1213.0
4.54500 1225.0
4.55500 1170.0
4.56500 1173.0
4.57500 1251.0
4.58500 1248.0
4.59500 1147.0
4.60500 1102.0
4.61500 1193.0
4.62500 1088.0
4.63500 1132.0
4.64500 1038.0
4.65500 1081.0
4.66500 1027.0
4.67500 1013.0
4.68500 1047.0
4.69500 1064.0
4.70500 1106.0
4.71500 1074.0
4.72500 1120.0
4.73500 1128.0
4.74500 1139.0
4.75500 1037.0
4.76500 1031.0
4.77500 1063.0
4.78500 1054.0
4.79500 1026.0
4.80500 1000.0
4.81500 998.0
4.82500 934.0
4.83500 853.0
4.84500 815.0
4.85500 817.0
4.86500 962.0
4.87500 937.0
4.88500 908.0
4.89500 886.0
4.90500 843.0
4.91500 803.0
4.92500 823.0
4.93500 870.0
4.94500 849.0
4.95500 835.0
4.96500 847.0
4.97500 902.0
4.98500 800.0
4.99500 687.0
5.00500 736.0
5.01500 755.0
5.02500 728.0
5.03500 758.0
5.04500 745.0
5.05500 737.0
5.06500 771.0
5.07500 725.0
5.08500 689.0
5.09500 802.0
5.10500 752.0
5.11500 691.0
5.12500 758.0
5.13500 657.0
5.14500 652.0
5.15500 660.0
5.16500 688.0
5.17500 654.0
5.18500 702.0
5.19500 728.0
5.20500 764.0
5.21500 715.0
5.22500 755.0
5.23500 615.0
5.24500 682.0
5.25500 700.0
5.26500 749.0
5.27500 690.0
5.28500 667.0
5.29500 654.0
5.30500 624.0
5.31500 657.0
5.32500 628.0
5.33500 663.0
5.34500 608.0
5.35500 630.0
5.36500 585.0
5.37500 662.0
5.38500 612.0
5.39500 616.0
5.40500 623.0
5.41500 537.0
5.42500 624.0
5.43500 631.0
5.44500 603.0
5.45500 659.0
5.46500 708.0
5.47500 762.0
5.48500 873.0
5.49500 888.0
5.50500 957.0
5.51500 817.0
5.52500 839.0
5.53500 886.0
5.54500 962.0
5.55500 900.0
5.56500 948.0
5.57500 940.0
5.58500 962.0
5.59500 1042.0
5.60500 1123.0
5.61500 1111.0
5.62500 1218.0
5.63500 1297.0
5.64500 1466.0
5.65500 1571.0
5.66500 2023.0
5.67500 2524.0
5.68500 3635.0
5.69500 5733.0
5.70500 10259.0
5.71500 22309.0
5.72500 46384.0
5.73500 71913.0
5.74500 82382.0
5.75500 67557.0
5.76500 43791.0
5.77500 25023.0
5.78500 14678.0
5.79500 8882.0
5.80500 5151.0
5.81500 3163.0
5.82500 1846.0
5.83500 1142.0
5.84500 842.0
5.85500 674.0
5.86500 561.0
5.87500 450.0
5.88500 402.0
5.89500 360.0
5.90500 311.0
5.91500 285.0
5.92500 286.0
5.93500 304.0
5.94500 229.0
5.95500 201.0
5.96500 175.0
5.97500 202.0
5.98500 168.0
5.99500 242.0
6.00500 215.0
6.01500 234.0
6.02500 288.0
6.03500 319.0
6.04500 314.0
6.05500 339.0
6.06500 348.0
6.07500 307.0
6.08500 336.0
6.09500 260.0
6.10500 256.0
6.11500 208.0
6.12500 176.0
6.13500 183.0
6.14500 180.0
6.15500 229.0
6.16500 160.0
6.17500 155.0
6.18500 189.0
6.19500 217.0
6.20500 176.0
6.21500 195.0
6.22500 289.0
6.23500 211.0
6.24500 190.0
6.25500 184.0
6.26500 258.0
6.27500 414.0
6.28500 395.0
6.29500 429.0
6.30500 348.0
6.31500 326.0
6.32500 276.0
6.33500 206.0
6.34500 233.0
6.35500 274.0
6.36500 257.0
6.37500 189.0
6.38500 238.0
6.39500 276.0
6.40500 214.0
6.41500 214.0
6.42500 229.0
6.43500 245.0
6.44500 209.0
6.45500 174.0
6.46500 157.0
6.47500 211.0
6.48500 169.0
6.49500 168.0
6.50500 232.0
6.51500 239.0
6.52500 318.0
6.53500 269.0
6.54500 180.0
6.55500 149.0
6.56500 113.0
6.57500 224.0
6.58500 241.0
6.59500 272.0
6.60500 192.0
6.61500 221.0
6.62500 174.0
6.63500 184.0
6.64500 270.0
6.65500 345.0
6.66500 317.0
6.67500 214.0
6.68500 205.0
6.69500 179.0
6.70500 169.0
6.71500 202.0
6.72500 231.0
6.73500 252.0
6.74500 166.0
6.75500 188.0
6.76500 289.0
6.77500 276.0
6.78500 294.0
6.79500 217.0
6.80500 224.0
6.81500 149.0
6.82500 134.0
6.83500 115.0
6.84500 142.0
6.85500 142.0
6.86500 151.0
6.87500 143.0
6.88500 150.0
6.89500 144.0
6.90500 140.0
6.91500 107.0
6.92500 128.0
6.93500 101.0
6.94500 111.0
6.95500 95.0
6.96500 105.0
6.97500 105.0
6.98500 123.0
6.99500 91.0
7.00500 102.0
7.01500 119.0
7.02500 137.0
7.03500 129.0
7.04500 136.0
7.05500 144.0
7.06500 166.0
7.07500 151.0
7.08500 136.0
7.09500 180.0
7.10500 164.0
7.11500 99.0
7.12500 114.0
7.13500 157.0
7.14500 166.0
7.15500 197.0
7.16500 226.0
7.17500 205.0
7.18500 159.0
7.19500 146.0
7.20500 144.0
7.21500 145.0
7.22500 168.0
7.23500 177.0
7.24500 184.0
7.25500 159.0
7.26500 150.0
7.27500 134.0
7.28500 185.0
7.29500 172.0
7.30500 171.0
7.31500 164.0
7.32500 156.0
7.33500 138.0
7.34500 134.0
7.35500 133.0
7.36500 125.0
7.37500 149.0
7.38500 150.0
7.39500 148.0
7.40500 162.0
7.41500 193.0
7.42500 164.0
7.43500 175.0
7.44500 192.0
7.45500 204.0
7.46500 231.0
7.47500 193.0
7.48500 235.0
7.49500 249.0
7.50500 314.0
7.51500 302.0
7.52500 354.0
7.53500 392.0
7.54500 496.0
7.55500 684.0
7.56500 914.0
7.57500 1446.0
7.58500 2437.0
7.59500 4562.0
7.60500 9696.0
7.61500 18861.0
7.62500 28776.0
7.63500 31670.0
7.64500 27963.0
7.65500 20692.0
7.66500 13552.0
7.67500 8602.0
7.68500 5824.0
7.69500 4009.0
7.70500 2857.0
7.71500 1956.0
7.72500 1264.0
7.73500 849.0
7.74500 629.0
7.75500 514.0
7.76500 454.0
7.77500 322.0
7.78500 303.0
7.79500 286.0
7.80500 282.0
7.81500 275.0
7.82500 262.0
7.83500 234.0
7.84500 241.0
7.85500 207.0
7.86500 191.0
7.87500 194.0
7.88500 157.0
7.89500 157.0
7.90500 150.0
7.91500 188.0
7.92500 215.0
7.93500 171.0
7.94500 163.0
7.95500 142.0
7.96500 139.0
7.97500 133.0
7.98500 89.0
7.99500 120.0
8.00500 139.0
8.01500 103.0
8.02500 138.0
8.03500 142.0
8.04500 189.0
8.05500 175.0
8.06500 151.0
8.07500 108.0
8.08500 117.0
8.09500 102.0
8.10500 128.0
8.11500 119.0
8.12500 127.0
8.13500 157.0
8.14500 119.0
8.15500 135.0
8.16500 163.0
8.17500 151.0
8.18500 183.0
8.19500 158.0
8.20500 111.0
8.21500 139.0
8.22500 167.0
8.23500 335.0
8.24500 284.0
8.25500 223.0
8.26500 399.0
8.27500 484.0
8.28500 293.0
8.29500 237.0
8.30500 185.0
8.31500 205.0
8.32500 169.0
8.33500 189.0
8.34500 228.0
8.35500 222.0
8.36500 210.0
8.37500 116.0
8.38500 138.0
8.39500 151.0
8.40500 118.0
8.41500 97.0
8.42500 92.0
8.43500 116.0
8.44500 102.0
8.45500 78.0
8.46500 167.0
8.47500 129.0
8.48500 86.0
8.49500 119.0
8.50500 105.0
8.51500 128.0
8.52500 143.0
8.53500 97.0
8.54500 123.0
8.55500 154.0
8.56500 137.0
8.57500 127.0
8.58500 117.0
8.59500 148.0
8.60500 132.0
8.61500 154.0
8.62500 146.0
8.63500 177.0
8.64500 160.0
8.65500 160.0
8.66500 145.0
8.67500 126.0
8.68500 122.0
8.69500 194.0
8.70500 229.0
8.71500 212.0
8.72500 226.0
8.73500 180.0
8.74500 165.0
8.75500 184.0
8.76500 197.0
8.77500 165.0
8.78500 201.0
8.79500 196.0
8.80500 193.0
8.81500 178.0
8.82500 162.0
8.83500 170.0
8.84500 192.0
8.85500 200.0
8.86500 160.0
8.87500 144.0
8.88500 125.0
8.89500 122.0
8.90500 136.0
8.91500 124.0
8.92500 139.0
8.93500 182.0
8.94500 199.0
8.95500 170.0
8.96500 168.0
8.97500 155.0
8.98500 143.0
8.99500 118.0
9.00500 148.0
9.01500 151.0
9.02500 183.0
9.03500 201.0
9.04500 251.0
9.05500 215.0
9.06500 195.0
9.07500 219.0
9.08500 190.0
9.09500 239.0
9.10500 231.0
9.11500 300.0
9.12500 219.0
9.13500 214.0
9.14500 235.0
9.15500 235.0
9.16500 166.0
9.17500 157.0
9.18500 147.0
9.19500 139.0
9.20500 124.0
9.21500 127.0
9.22500 106.0
9.23500 125.0
9.24500 129.0
9.25500 163.0
9.26500 172.0
9.27500 189.0
9.28500 150.0
9.29500 150.0
9.30500 167.0
9.31500 196.0
9.32500 142.0
9.33500 152.0
9.34500 179.0
9.35500 149.0
9.36500 180.0
9.37500 192.0
9.38500 214.0
9.39500 244.0
9.40500 222.0
9.41500 205.0
9.42500 197.0
9.43500 180.0
9.44500 184.0
9.45500 185.0
9.46500 226.0
9.47500 258.0
9.48500 367.0
9.49500 604.0
9.50500 1023.0
9.51500 1597.0
9.52500 2033.0
9.53500 2012.0
9.54500 1753.0
9.55500 1436.0
9.56500 1022.0
9.57500 781.0
9.58500 607.0
9.59500 527.0
9.60500 436.0
9.61500 339.0
9.62500 270.0
9.63500 228.0
9.64500 198.0
9.65500 215.0
9.66500 202.0
9.67500 163.0
9.68500 168.0
9.69500 131.0
9.70500 152.0
9.71500 140.0
9.72500 147.0
9.73500 171.0
9.74500 161.0
9.75500 170.0
9.76500 130.0
9.77500 142.0
9.78500 125.0
9.79500 122.0
9.80500 73.0
9.81500 85.0
9.82500 94.0
9.83500 122.0
9.84500 83.0
9.85500 85.0
9.86500 96.0
9.87500 129.0
9.88500 104.0
9.89500 119.0
9.90500 106.0
9.91500 84.0
9.92500 82.0
9.93500 80.0
9.94500 72.0
9.95500 90.0
9.96500 67.0
9.97500 79.0
9.98500 83.0
9.99500 113.0
10.00500 92.0
10.01500 102.0
10.02500 123.0
10.03500 103.0
10.04500 65.0
10.05500 69.0
10.06500 105.0
10.07500 100.0
10.08500 121.0
10.09500 104.0
10.10500 114.0
10.11500 123.0
10.12500 126.0
10.13500 79.0
10.14500 115.0
10.15500 102.0
10.16500 154.0
10.17500 159.0
10.18500 178.0
10.19500 156.0
10.20500 115.0
10.21500 101.0
10.22500 104.0
10.23500 116.0
10.24500 124.0
10.25500 119.0
10.26500 118.0
10.27500 107.0
10.28500 138.0
10.29500 90.0
10.30500 120.0
10.31500 116.0
10.32500 151.0
10.33500 131.0
10.34500 131.0
10.35500 158.0
10.36500 186.0
10.37500 148.0
10.38500 176.0
10.39500 137.0
10.40500 167.0
10.41500 155.0
10.42500 116.0
10.43500 166.0
10.44500 164.0
10.45500 166.0
10.46500 176.0
10.47500 172.0
10.48500 133.0
10.49500 162.0
10.50500 153.0
10.51500 159.0
10.52500 123.0
10.53500 111.0
10.54500 107.0
10.55500 83.0
10.56500 98.0
10.57500 100.0
10.58500 91.0
10.59500 92.0
10.60500 97.0
10.61500 105.0
10.62500 135.0
10.63500 112.0
10.64500 118.0
10.65500 124.0
10.66500 108.0
10.67500 161.0
10.68500 154.0
10.69500 122.0
10.70500 122.0
10.71500 93.0
10.72500 101.0
10.73500 129.0
10.74500 128.0
10.75500 180.0
10.76500 138.0
10.77500 102.0
10.78500 150.0
10.79500 139.0
10.80500 148.0
10.81500 191.0
10.82500 168.0
10.83500 164.0
10.84500 140.0
10.85500 123.0
10.86500 107.0
10.87500 133.0
10.88500 127.0
10.89500 112.0
10.90500 142.0
10.91500 147.0
10.92500 139.0
10.93500 131.0
10.94500 164.0
10.95500 135.0
10.96500 159.0
10.97500 200.0
10.98500 161.0
10.99500 121.0
11.00500 122.0
11.01500 117.0
11.02500 112.0
11.03500 118.0
11.04500 124.0
11.05500 155.0
11.06500 127.0
11.07500 120.0
11.08500 122.0
11.09500 127.0
11.10500 129.0
11.11500 119.0
11.12500 111.0
11.13500 101.0
11.14500 97.0
11.15500 100.0
11.16500 94.0
11.17500 111.0
11.18500 88.0
11.19500 80.0
11.20500 88.0
11.21500 90.0
11.22500 131.0
11.23500 116.0
11.24500 134.0
11.25500 157.0
11.26500 140.0
11.27500 157.0
11.28500 115.0
11.29500 135.0
11.30500 152.0
11.31500 133.0
11.32500 134.0
11.33500 160.0
11.34500 187.0
11.35500 158.0
11.36500 147.0
11.37500 138.0
11.38500 190.0
11.39500 279.0
11.40500 459.0
11.41500 686.0
11.42500 826.0
11.43500 864.0
11.44500 786.0
11.45500 684.0
11.46500 585.0
11.47500 477.0
11.48500 357.0
11.49500 250.0
11.50500 252.0
11.51500 256.0
11.52500 224.0
11.53500 194.0
11.54500 165.0
11.55500 167.0
11.56500 153.0
11.57500 205.0
11.58500 163.0
11.59500 138.0
11.60500 126.0
11.61500 112.0
11.62500 89.0
11.63500 145.0
11.64500 127.0
11.65500 117.0
11.66500 176.0
11.67500 149.0
11.68500 111.0
11.69500 125.0
11.70500 139.0
11.71500 162.0
11.72500 150.0
11.73500 135.0
11.74500 150.0
11.75500 161.0
11.76500 143.0
11.77500 102.0
11.78500 92.0
11.79500 121.0
11.80500 143.0
11.81500 161.0
11.82500 227.0
11.83500 155.0
11.84500 136.0
11.85500 128.0
11.86500 110.0
11.87500 105.0
11.88500 92.0
11.89500 123.0
11.90500 111.0
11.91500 116.0
11.92500 136.0
11.93500 106.0
11.94500 98.0
11.95500 98.0
11.96500 118.0
11.97500 125.0
11.98500 105.0
11.99500 95.0
