0.00500 32145648.0
0.01500 41220892.0
0.02500 39864384.0
0.03500 30895428.0
0.04500 18632474.0
0.05500 8920354.0
0.06500 3691454.0
0.07500 2033059.0
0.08500 1993910.0
0.09500 2147830.0
0.10500 2387835.0
0.11500 2641750.0
0.12500 2828672.0
0.13500 3131599.0
0.14500 3341740.0
0.15500 3585556.0
0.16500 3894470.0
0.17500 4052656.0
0.18500 4333426.0
0.19500 4539245.0
0.20500 4753855.0
0.21500 5086104.0
0.22500 5217513.0
0.23500 5528327.0
0.24500 5736812.0
0.25500 5963642.0
0.26500 6348696.0
0.27500 6503847.0
0.28500 6817859.0
0.29500 7107628.0
0.30500 7228212.0
0.31500 7620704.0
0.32500 7780393.0
0.33500 8031495.0
0.34500 8427040.0
0.35500 8533316.0
0.36500 8879871.0
0.37500 9084366.0
0.38500 9259042.0
0.39500 9668096.0
0.40500 9702453.0
0.41500 10023252.0
0.42500 10291144.0
0.43500 10449317.0
0.44500 10866392.0
0.45500 10938884.0
0.46500 11166325.0
0.47500 11443232.0
0.48500 11500895.0
0.49500 11832030.0
0.50500 11927681.0
0.51500 12006590.0
0.52500 12351060.0
0.53500 12311065.0
0.54500 12654187.0
0.55500 12632625.0
0.56500 12598633.0
0.57500 12926446.0
0.58500 12861655.0
0.59500 13019767.0
0.60500 13095977.0
0.61500 12938335.0
0.62500 12975094.0
0.63500 12640629.0
0.64500 12545377.0
0.65500 12422003.0
0.66500 11880422.0
0.67500 11662646.0
0.68500 11066578.0
0.69500 10447367.0
0.70500 9797766.0
0.71500 8857914.0
0.72500 8179484.0
0.73500 7357876.0
0.74500 6590603.0
0.75500 5954474.0
0.76500 5302632.0
0.77500 4811428.0
0.78500 4390643.0
0.79500 3979021.0
0.80500 3681471.0
0.81500 3337835.0
0.82500 3075679.0
0.83500 2862078.0
0.84500 2630166.0
0.85500 2475397.0
0.86500 2286276.0
0.87500 2130576.0
0.88500 2024711.0
0.89500 1884588.0
0.90500 1786562.0
0.91500 1662346.0
0.92500 1570348.0
0.93500 1502621.0
0.94500 1406003.0
0.95500 1339378.0
0.96500 1277511.0
0.97500 1202421.0
0.98500 1154989.0
0.99500 1095034.0
1.00500 1041675.0
1.01500 997746.0
1.02500 943321.0
1.03500 908665.0
1.04500 861058.0
1.05500 831242.0
1.06500 793293.0
1.07500 752177.0
1.08500 722840.0
1.09500 692265.0
1.10500 657792.0
1.11500 638645.0
1.12500 608395.0
1.13500 589685.0
1.14500 567575.0
1.15500 541943.0
1.16500 524653.0
1.17500 497185.0
1.18500 480010.0
1.19500 464141.0
1.20500 445571.0
1.21500 430304.0
1.22500 414180.0
1.23500 397422.0
1.24500 385346.0
1.25500 372797.0
1.26500 361416.0
1.27500 350510.0
1.28500 336328.0
1.29500 327255.0
1.30500 317601.0
1.31500 308052.0
1.32500 299416.0
1.33500 287769.0
1.34500 280000.0
1.35500 270629.0
1.36500 262492.0
1.37500 256493.0
1.38500 246984.0
1.39500 241016.0
1.40500 233185.0
1.41500 226487.0
1.42500 221178.0
1.43500 213355.0
1.44500 207813.0
1.45500 202188.0
1.46500 196958.0
1.47500 192787.0
1.48500 188257.0
1.49500 183899.0
1.50500 179719.0
1.51500 175112.0
1.52500 171677.0
1.53500 169101.0
1.54500 164799.0
1.55500 162752.0
1.56500 159064.0
1.57500 156713.0
1.58500 155238.0
1.59500 153993.0
1.60500 151652.0
1.61500 150180.0
1.62500 147524.0
1.63500 146815.0
1.64500 145656.0
1.65500 144900.0
1.66500 142701.0
1.67500 141864.0
1.68500 140101.0
1.69500 136457.0
1.70500 136375.0
1.71500 134990.0
1.72500 136386.0
1.73500 137918.0
1.74500 137225.0
1.75500 138169.0
1.76500 137085.0
1.77500 137406.0
1.78500 136890.0
1.79500 139041.0
1.80500 142739.0
1.81500 148972.0
1.82500 156576.0
1.83500 161140.0
1.84500 166317.0
1.85500 170459.0
1.86500 176789.0
1.87500 185820.0
1.88500 200123.0
1.89500 217040.0
1.90500 238298.0
1.91500 266130.0
1.92500 295595.0
1.93500 322495.0
1.94500 363402.0
1.95500 429985.0
1.96500 521603.0
1.97500 690161.0
1.98500 1036738.0
1.99500 1653194.0
2.00500 2402864.0
2.01500 2921909.0
2.02500 2977718.0
2.03500 2557923.0
2.04500 1918002.0
2.05500 1287716.0
2.06500 864392.0
2.07500 580879.0
2.08500 399746.0
2.09500 279757.0
2.10500 199652.0
2.11500 148252.0
2.12500 112073.0
2.13500 86494.0
2.14500 69885.0
2.15500 56099.0
2.16500 45941.0
2.17500 38523.0
2.18500 31909.0
2.19500 26825.0
2.20500 22409.0
2.21500 20056.0
2.22500 18105.0
2.23500 16088.0
2.24500 14613.0
2.25500 13461.0
2.26500 11958.0
2.27500 11025.0
2.28500 10182.0
2.29500 9272.0
2.30500 8619.0
2.31500 8182.0
2.32500 7735.0
2.33500 7311.0
2.34500 6574.0
2.35500 6089.0
2.36500 5817.0
2.37500 5431.0
2.38500 5169.0
2.39500 5007.0
2.40500 4834.0
2.41500 4660.0
2.42500 4501.0
2.43500 4399.0
2.44500 4381.0
2.45500 4051.0
2.46500 3974.0
2.47500 3832.0
2.48500 3676.0
2.49500 3623.0
2.50500 3530.0
2.51500 3298.0
2.52500 3162.0
2.53500 3152.0
2.54500 3107.0
2.55500 3081.0
2.56500 2935.0
2.57500 2827.0
2.58500 2916.0
2.59500 2851.0
2.60500 2660.0
2.61500 2728.0
2.62500 2726.0
2.63500 2708.0
2.64500 2614.0
2.65500 2545.0
2.66500 2602.0
2.67500 2377.0
2.68500 2344.0
2.69500 2224.0
2.70500 2271.0
2.71500 2244.0
2.72500 2166.0
2.73500 2131.0
2.74500 2068.0
2.75500 2114.0
2.76500 2107.0
2.77500 2044.0
2.78500 2078.0
2.79500 2081.0
2.80500 2155.0
2.81500 2076.0
2.82500 2126.0
2.83500 2070.0
2.84500 2076.0
2.85500 1997.0
2.86500 2067.0
2.87500 1945.0
2.88500 2039.0
2.89500 1898.0
2.90500 1940.0
2.91500 1889.0
2.92500 1820.0
2.93500 1834.0
2.94500 1906.0
2.95500 1829.0
2.96500 1866.0
2.97500 1792.0
2.98500 1954.0
2.99500 1805.0
3.00500 1738.0
3.01500 1810.0
3.02500 1804.0
3.03500 1738.0
3.04500 1741.0
3.05500 1916.0
3.06500 1723.0
3.07500 1681.0
3.08500 1748.0
3.09500 1736.0
3.10500 1756.0
3.11500 1676.0
3.12500 1754.0
3.13500 1722.0
3.14500 1631.0
3.15500 1737.0
3.16500 1719.0
3.17500 1795.0
3.18500 1757.0
3.19500 1733.0
3.20500 1806.0
3.21500 1757.0
3.22500 1742.0
3.23500 1758.0
3.24500 1723.0
3.25500 1717.0
3.26500 1699.0
3.27500 1569.0
3.28500 1667.0
3.29500 1603.0
3.30500 1554.0
3.31500 1540.0
3.32500 1597.0
3.33500 1527.0
3.34500 1543.0
3.35500 1551.0
3.36500 1495.0
3.37500 1471.0
3.38500 1532.0
3.39500 1389.0
3.40500 1382.0
3.41500 1399.0
3.42500 1434.0
3.43500 1343.0
3.44500 1373.0
3.45500 1425.0
3.46500 1437.0
3.47500 1324.0
3.48500 1348.0
3.49500 1393.0
3.50500 1330.0
3.51500 1356.0
3.52500 1472.0
3.53500 1426.0
3.54500 1360.0
3.55500 1298.0
3.56500 1362.0
3.57500 1329.0
3.58500 1241.0
3.59500 1252.0
3.60500 1276.0
3.61500 1302.0
3.62500 1219.0
3.63500 1230.0
3.64500 1216.0
3.65500 1218.0
3.66500 1196.0
3.67500 1236.0
3.68500 1247.0
3.69500 1251.0
3.70500 1329.0
3.71500 1429.0
3.72500 1431.0
3.73500 1509.0
3.74500 1595.0
3.75500 1931.0
3.76500 2088.0
3.77500 2235.0
3.78500 2540.0
3.79500 2961.0
3.80500 3616.0
3.81500 6107.0
3.82500 12553.0
3.83500 22221.0
3.84500 31403.0
3.85500 36283.0
3.86500 34504.0
3.87500 28094.0
3.88500 21107.0
3.89500 15436.0
3.90500 11236.0
3.91500 9063.0
3.92500 6787.0
3.93500 5584.0
3.94500 4697.0
3.95500 4005.0
3.96500 3466.0
3.97500 3200.0
3.98500 3109.0
3.99500 2856.0
4.00500 2728.0
4.01500 2626.0
4.02500 2605.0
4.03500 2379.0
4.04500 2284.0
4.05500 2254.0
4.06500 2007.0
4.07500 1988.0
4.08500 1997.0
4.09500 2049.0
4.10500 1910.0
4.11500 1875.0
4.12500 1857.0
4.13500 1734.0
4.14500 1703.0
4.15500 1668.0
4.16500 1671.0
4.17500 1622.0
4.18500 1581.0
4.19500 1579.0
4.20500 1561.0
4.21500 1489.0
4.22500 1446.0
4.23500 1502.0
4.24500 1475.0
4.25500 1426.0
4.26500 1383.0
4.27500 1503.0
4.28500 1366.0
4.29500 1292.0
4.30500 1311.0
4.31500 1375.0
4.32500 1259.0
4.33500 1188.0
4.34500 1285.0
4.35500 1239.0
4.36500 1181.0
4.37500 1157.0
4.38500 1169.0
4.39500 1159.0
4.40500 1141.0
4.41500 1119.0
4.42500 1124.0
4.43500 1052.0
4.44500 1043.0
4.45500 1057.0
4.46500 1073.0
4.47500 960.0
4.48500 1006.0
4.49500 1032.0
4.50500 1026.0
4.51500 967.0
4.52500 926.0
4.53500 955.0
4.54500 900.0
4.55500 945.0
4.56500 919.0
4.57500 960.0
4.58500 881.0
4.59500 907.0
4.60500 961.0
4.61500 902.0
4.62500 917.0
4.63500 862.0
4.64500 845.0
4.65500 864.0
4.66500 744.0
4.67500 767.0
4.68500 818.0
4.69500 813.0
4.70500 795.0
4.71500 812.0
4.72500 859.0
4.73500 758.0
4.74500 752.0
4.75500 685.0
4.76500 755.0
4.77500 700.0
4.78500 707.0
4.79500 739.0
4.80500 689.0
4.81500 678.0
4.82500 679.0
4.83500 720.0
4.84500 689.0
4.85500 595.0
4.86500 625.0
4.87500 635.0
4.88500 621.0
4.89500 578.0
4.90500 616.0
4.91500 610.0
4.92500 633.0
4.93500 643.0
4.94500 617.0
4.95500 568.0
4.96500 553.0
4.97500 620.0
4.98500 653.0
4.99500 588.0
5.00500 574.0
5.01500 555.0
5.02500 590.0
5.03500 523.0
5.04500 513.0
5.05500 472.0
5.06500 523.0
5.07500 517.0
5.08500 447.0
5.09500 449.0
5.10500 418.0
5.11500 410.0
5.12500 393.0
5.13500 451.0
5.14500 391.0
5.15500 351.0
5.16500 392.0
5.17500 422.0
5.18500 370.0
5.19500 361.0
5.20500 367.0
5.21500 366.0
5.22500 345.0
5.23500 356.0
5.24500 356.0
5.25500 346.0
5.26500 357.0
5.27500 334.0
5.28500 364.0
5.29500 331.0
5.30500 337.0
5.31500 357.0
5.32500 320.0
5.33500 304.0
5.34500 339.0
5.35500 303.0
5.36500 345.0
5.37500 364.0
5.38500 371.0
5.39500 350.0
5.40500 315.0
5.41500 372.0
5.42500 336.0
5.43500 331.0
5.44500 359.0
5.45500 377.0
5.46500 341.0
5.47500 351.0
5.48500 364.0
5.49500 404.0
5.50500 441.0
5.51500 442.0
5.52500 428.0
5.53500 518.0
5.54500 426.0
5.55500 424.0
5.56500 329.0
5.57500 355.0
5.58500 338.0
5.59500 410.0
5.60500 402.0
5.61500 404.0
5.62500 376.0
5.63500 347.0
5.64500 446.0
5.65500 447.0
5.66500 405.0
5.67500 490.0
5.68500 612.0
5.69500 818.0
5.70500 947.0
5.71500 964.0
5.72500 868.0
5.73500 756.0
5.74500 645.0
5.75500 518.0
5.76500 467.0
5.77500 351.0
5.78500 278.0
5.79500 288.0
5.80500 237.0
5.81500 254.0
5.82500 185.0
5.83500 196.0
5.84500 201.0
5.85500 206.0
5.86500 214.0
5.87500 232.0
5.88500 220.0
5.89500 239.0
5.90500 290.0
5.91500 222.0
5.92500 168.0
5.93500 213.0
5.94500 260.0
5.95500 240.0
5.96500 217.0
5.97500 206.0
5.98500 172.0
5.99500 156.0
6.00500 146.0
6.01500 162.0
6.02500 192.0
6.03500 145.0
6.04500 182.0
6.05500 175.0
6.06500 132.0
6.07500 193.0
6.08500 170.0
6.09500 152.0
6.10500 153.0
6.11500 178.0
6.12500 151.0
6.13500 154.0
6.14500 201.0
6.15500 256.0
6.16500 219.0
6.17500 165.0
6.18500 197.0
6.19500 204.0
6.20500 212.0
6.21500 168.0
6.22500 174.0
6.23500 197.0
6.24500 187.0
6.25500 247.0
6.26500 218.0
6.27500 209.0
6.28500 189.0
6.29500 214.0
6.30500 168.0
6.31500 197.0
6.32500 269.0
6.33500 254.0
6.34500 214.0
6.35500 189.0
6.36500 192.0
6.37500 150.0
6.38500 160.0
6.39500 144.0
6.40500 171.0
6.41500 222.0
6.42500 204.0
6.43500 239.0
6.44500 195.0
6.45500 210.0
6.46500 206.0
6.47500 165.0
6.48500 192.0
6.49500 199.0
6.50500 174.0
6.51500 191.0
6.52500 204.0
6.53500 190.0
6.54500 167.0
6.55500 194.0
6.56500 194.0
6.57500 181.0
6.58500 174.0
6.59500 169.0
6.60500 227.0
6.61500 228.0
6.62500 200.0
6.63500 223.0
6.64500 215.0
6.65500 194.0
6.66500 195.0
6.67500 231.0
6.68500 209.0
6.69500 224.0
6.70500 197.0
6.71500 184.0
6.72500 144.0
6.73500 141.0
6.74500 145.0
6.75500 135.0
6.76500 138.0
6.77500 153.0
6.78500 118.0
6.79500 110.0
6.80500 132.0
6.81500 130.0
6.82500 163.0
6.83500 173.0
6.84500 166.0
6.85500 137.0
6.86500 134.0
6.87500 111.0
6.88500 91.0
6.89500 100.0
6.90500 96.0
6.91500 75.0
6.92500 101.0
6.93500 88.0
6.94500 88.0
6.95500 108.0
6.96500 107.0
6.97500 129.0
6.98500 149.0
6.99500 148.0
7.00500 132.0
7.01500 138.0
7.02500 159.0
7.03500 172.0
7.04500 155.0
7.05500 141.0
7.06500 155.0
7.07500 165.0
7.08500 176.0
7.09500 190.0
7.10500 209.0
7.11500 196.0
7.12500 194.0
7.13500 198.0
7.14500 188.0
7.15500 215.0
7.16500 262.0
7.17500 244.0
7.18500 216.0
7.19500 175.0
7.20500 206.0
7.21500 291.0
7.22500 283.0
7.23500 259.0
7.24500 283.0
7.25500 293.0
7.26500 250.0
7.27500 220.0
7.28500 224.0
7.29500 303.0
7.30500 322.0
7.31500 293.0
7.32500 345.0
7.33500 241.0
7.34500 237.0
7.35500 241.0
7.36500 273.0
7.37500 292.0
7.38500 300.0
7.39500 289.0
7.40500 294.0
7.41500 231.0
7.42500 307.0
7.43500 246.0
7.44500 325.0
7.45500 346.0
7.46500 379.0
7.47500 327.0
7.48500 250.0
7.49500 236.0
7.50500 243.0
7.51500 270.0
7.52500 284.0
7.53500 247.0
7.54500 277.0
7.55500 275.0
7.56500 252.0
7.57500 242.0
7.58500 243.0
7.59500 276.0
