0.00500 32271788.0
0.01500 35725576.0
0.02500 31466612.0
0.03500 25201796.0
0.04500 17935408.0
0.05500 11012967.0
0.06500 6978805.0
0.07500 5827747.0
0.08500 6113697.0
0.09500 6725848.0
0.10500 7430671.0
0.11500 8095442.0
0.12500 8805272.0
0.13500 9498688.0
0.14500 10162771.0
0.15500 10858535.0
0.16500 11461454.0
0.17500 12126493.0
0.18500 12802659.0
0.19500 13419454.0
0.20500 13974855.0
0.21500 14683317.0
0.22500 15237437.0
0.23500 15843669.0
0.24500 16376352.0
0.25500 16851480.0
0.26500 17472024.0
0.27500 18024748.0
0.28500 18542558.0
0.29500 19127762.0
0.30500 19716672.0
0.31500 20199230.0
0.32500 20707338.0
0.33500 21250778.0
0.34500 21694866.0
0.35500 22158350.0
0.36500 22746012.0
0.37500 23316078.0
0.38500 23662616.0
0.39500 24023564.0
0.40500 24191886.0
0.41500 24735844.0
0.42500 25057856.0
0.43500 25514728.0
0.44500 25858880.0
0.45500 26237130.0
0.46500 26515272.0
0.47500 26877676.0
0.48500 27229624.0
0.49500 27439616.0
0.50500 27778292.0
0.51500 28145916.0
0.52500 28522608.0
0.53500 28970722.0
0.54500 29131776.0
0.55500 29432686.0
0.56500 29721810.0
0.57500 29724406.0
0.58500 29974640.0
0.59500 30208804.0
0.60500 30261156.0
0.61500 30515766.0
0.62500 30451850.0
0.63500 30310380.0
0.64500 30310244.0
0.65500 30409100.0
0.66500 30306814.0
0.67500 30120976.0
0.68500 30063048.0
0.69500 29908616.0
0.70500 29543052.0
0.71500 28749332.0
0.72500 27816602.0
0.73500 25859132.0
0.74500 23126000.0
0.75500 19782940.0
0.76500 16365681.0
0.77500 13569415.0
0.78500 11503150.0
0.79500 9868163.0
0.80500 8679491.0
0.81500 7634750.0
0.82500 6791863.0
0.83500 6098583.0
0.84500 5499958.0
0.85500 4990014.0
0.86500 4565002.0
0.87500 4168638.0
0.88500 3829653.0
0.89500 3542387.0
0.90500 3274971.0
0.91500 3059497.0
0.92500 2853513.0
0.93500 2641419.0
0.94500 2473461.0
0.95500 2325055.0
0.96500 2166026.0
0.97500 2035926.0
0.98500 1931558.0
0.99500 1797828.0
1.00500 1718032.0
1.01500 1635978.0
1.02500 1502164.0
1.03500 1419640.0
1.04500 1381385.0
1.05500 1272084.0
1.06500 1201198.0
1.07500 1181974.0
1.08500 1099085.0
1.09500 1018009.0
1.10500 999326.0
1.11500 968476.0
1.12500 880157.0
1.13500 841672.0
1.14500 850933.0
1.15500 799221.0
1.16500 724636.0
1.17500 730157.0
1.18500 724943.0
1.19500 645446.0
1.20500 607747.0
1.21500 625659.0
1.22500 609333.0
1.23500 536989.0
1.24500 525277.0
1.25500 542168.0
1.26500 499006.0
1.27500 445423.0
1.28500 457990.0
1.29500 470766.0
1.30500 425484.0
1.31500 377650.0
1.32500 398516.0
1.33500 407679.0
1.34500 358842.0
1.35500 328496.0
1.36500 346562.0
1.37500 348931.0
1.38500 307289.0
1.39500 281462.0
1.40500 303806.0
1.41500 304165.0
1.42500 258908.0
1.43500 242515.0
1.44500 259721.0
1.45500 262138.0
1.46500 224144.0
1.47500 208002.0
1.48500 232659.0
1.49500 233494.0
1.50500 200771.0
1.51500 183557.0
1.52500 202009.0
1.53500 213206.0
1.54500 183457.0
1.55500 161667.0
1.56500 175582.0
1.57500 186880.0
1.58500 162686.0
1.59500 143231.0
1.60500 156492.0
1.61500 169452.0
1.62500 150507.0
1.63500 127073.0
1.64500 134284.0
1.65500 147293.0
1.66500 136058.0
1.67500 113596.0
1.68500 114686.0
1.69500 131687.0
1.70500 124289.0
1.71500 101754.0
1.72500 98137.0
1.73500 115356.0
1.74500 116789.0
1.75500 97073.0
1.76500 88471.0
1.77500 99577.0
1.78500 107269.0
1.79500 93303.0
1.80500 78993.0
1.81500 87178.0
1.82500 97114.0
1.83500 87466.0
1.84500 72550.0
1.85500 73241.0
1.86500 86201.0
1.87500 82960.0
1.88500 67701.0
1.89500 66052.0
1.90500 77033.0
1.91500 78765.0
1.92500 66706.0
1.93500 58847.0
1.94500 66696.0
1.95500 73836.0
1.96500 64883.0
1.97500 54297.0
1.98500 56643.0
1.99500 66525.0
2.00500 63703.0
2.01500 51017.0
2.02500 50525.0
2.03500 59798.0
2.04500 62701.0
2.05500 52642.0
2.06500 45690.0
2.07500 53239.0
2.08500 59904.0
2.09500 54024.0
2.10500 44884.0
2.11500 48687.0
2.12500 57037.0
2.13500 57045.0
2.14500 46039.0
2.15500 43644.0
2.16500 52318.0
2.17500 56595.0
2.18500 48746.0
2.19500 41421.0
2.20500 49511.0
2.21500 59240.0
2.22500 56326.0
2.23500 45061.0
2.24500 45093.0
2.25500 57327.0
2.26500 62578.0
2.27500 52498.0
2.28500 45173.0
2.29500 53155.0
2.30500 63846.0
2.31500 59214.0
2.32500 50726.0
2.33500 60199.0
2.34500 83175.0
2.35500 90944.0
2.36500 79260.0
2.37500 78467.0
2.38500 109345.0
2.39500 139808.0
2.40500 149322.0
2.41500 192682.0
2.42500 383946.0
2.43500 806365.0
2.44500 1296253.0
2.45500 1642863.0
2.46500 1671690.0
2.47500 1376601.0
2.48500 932533.0
2.49500 532790.0
2.50500 283633.0
2.51500 174422.0
2.52500 134541.0
2.53500 106991.0
2.54500 81948.0
2.55500 60500.0
2.56500 47414.0
2.57500 39295.0
2.58500 33388.0
2.59500 29128.0
2.60500 25230.0
2.61500 21513.0
2.62500 19802.0
2.63500 18193.0
2.64500 16669.0
2.65500 14596.0
2.66500 12735.0
2.67500 11922.0
2.68500 11275.0
2.69500 10460.0
2.70500 9517.0
2.71500 8767.0
2.72500 8787.0
2.73500 8555.0
2.74500 7958.0
2.75500 7582.0
2.76500 7421.0
2.77500 7399.0
2.78500 7068.0
2.79500 6681.0
2.80500 6213.0
2.81500 5983.0
2.82500 5895.0
2.83500 5905.0
2.84500 5211.0
2.85500 4939.0
2.86500 4646.0
2.87500 4464.0
2.88500 4252.0
2.89500 3709.0
2.90500 3442.0
2.91500 3515.0
2.92500 4033.0
2.93500 3872.0
2.94500 3689.0
2.95500 3574.0
2.96500 3861.0
2.97500 3904.0
2.98500 3876.0
2.99500 4051.0
3.00500 3848.0
3.01500 3742.0
3.02500 3185.0
3.03500 2775.0
3.04500 2561.0
3.05500 2843.0
3.06500 2856.0
3.07500 2900.0
3.08500 2613.0
3.09500 2709.0
3.10500 2846.0
3.11500 2842.0
3.12500 2748.0
3.13500 2452.0
3.14500 2448.0
3.15500 2495.0
3.16500 2577.0
3.17500 2196.0
3.18500 2040.0
3.19500 2449.0
3.20500 2833.0
3.21500 2852.0
3.22500 2049.0
3.23500 1979.0
3.24500 2407.0
3.25500 2130.0
3.26500 1988.0
3.27500 1851.0
3.28500 1972.0
3.29500 2133.0
3.30500 2007.0
3.31500 1932.0
3.32500 1820.0
3.33500 1943.0
3.34500 1990.0
3.35500 1762.0
3.36500 1501.0
3.37500 1595.0
3.38500 1915.0
3.39500 1788.0
3.40500 1743.0
3.41500 1697.0
3.42500 1985.0
3.43500 1690.0
3.44500 1746.0
3.45500 1699.0
3.46500 1611.0
3.47500 1627.0
3.48500 1702.0
3.49500 1896.0
3.50500 1903.0
3.51500 2332.0
3.52500 2485.0
3.53500 2327.0
3.54500 1856.0
3.55500 1662.0
3.56500 1402.0
3.57500 1638.0
3.58500 1792.0
3.59500 1502.0
3.60500 1464.0
3.61500 1283.0
3.62500 1677.0
3.63500 1656.0
3.64500 1543.0
3.65500 1459.0
3.66500 1309.0
3.67500 1363.0
3.68500 1182.0
3.69500 1272.0
3.70500 1509.0
3.71500 1643.0
3.72500 1366.0
3.73500 1457.0
3.74500 1355.0
3.75500 1256.0
3.76500 1807.0
3.77500 1746.0
3.78500 1923.0
3.79500 1744.0
3.80500 1389.0
3.81500 1144.0
3.82500 1022.0
3.83500 1581.0
3.84500 917.0
3.85500 883.0
3.86500 946.0
3.87500 1017.0
3.88500 1011.0
3.89500 1109.0
3.90500 1259.0
3.91500 1113.0
3.92500 1232.0
3.93500 1214.0
3.94500 1020.0
3.95500 1080.0
3.96500 822.0
3.97500 844.0
3.98500 711.0
3.99500 1056.0
4.00500 832.0
4.01500 916.0
4.02500 888.0
4.03500 929.0
4.04500 979.0
4.05500 1040.0
4.06500 1114.0
4.07500 877.0
4.08500 593.0
4.09500 533.0
4.10500 516.0
4.11500 642.0
4.12500 586.0
4.13500 567.0
4.14500 620.0
4.15500 671.0
4.16500 754.0
4.17500 556.0
4.18500 592.0
4.19500 592.0
4.20500 469.0
4.21500 619.0
4.22500 697.0
4.23500 614.0
4.24500 600.0
4.25500 534.0
4.26500 572.0
4.27500 457.0
4.28500 437.0
4.29500 503.0
4.30500 561.0
4.31500 435.0
4.32500 400.0
4.33500 493.0
4.34500 658.0
4.35500 617.0
4.36500 738.0
4.37500 529.0
4.38500 629.0
4.39500 594.0
4.40500 678.0
4.41500 609.0
4.42500 627.0
4.43500 689.0
4.44500 636.0
4.45500 563.0
4.46500 523.0
4.47500 491.0
4.48500 657.0
4.49500 606.0
4.50500 581.0
4.51500 696.0
4.52500 684.0
4.53500 874.0
4.54500 731.0
4.55500 690.0
4.56500 725.0
4.57500 653.0
4.58500 626.0
4.59500 629.0
4.60500 599.0
4.61500 649.0
4.62500 1025.0
4.63500 976.0
4.64500 1133.0
4.65500 883.0
4.66500 913.0
4.67500 942.0
4.68500 983.0
4.69500 1212.0
4.70500 1731.0
4.71500 3154.0
4.72500 6262.0
4.73500 10384.0
4.74500 13775.0
4.75500 15974.0
4.76500 15251.0
4.77500 12413.0
4.78500 8967.0
4.79500 6485.0
4.80500 5134.0
4.81500 4225.0
4.82500 3641.0
4.83500 3054.0
4.84500 2551.0
4.85500 2297.0
4.86500 1671.0
4.87500 1410.0
4.88500 1115.0
4.89500 967.0
4.90500 820.0
4.91500 929.0
4.92500 943.0
4.93500 1020.0
4.94500 667.0
4.95500 650.0
4.96500 667.0
4.97500 578.0
4.98500 660.0
4.99500 679.0
5.00500 622.0
5.01500 748.0
5.02500 707.0
5.03500 677.0
5.04500 651.0
5.05500 564.0
5.06500 633.0
5.07500 730.0
5.08500 861.0
5.09500 924.0
5.10500 868.0
5.11500 950.0
5.12500 858.0
5.13500 821.0
5.14500 734.0
5.15500 610.0
5.16500 789.0
5.17500 747.0
5.18500 737.0
5.19500 665.0
5.20500 636.0
5.21500 640.0
5.22500 601.0
5.23500 604.0
5.24500 541.0
5.25500 361.0
5.26500 559.0
5.27500 523.0
5.28500 451.0
5.29500 339.0
5.30500 332.0
5.31500 412.0
5.32500 414.0
5.33500 430.0
5.34500 398.0
5.35500 331.0
5.36500 346.0
5.37500 380.0
5.38500 416.0
5.39500 341.0
5.40500 320.0
5.41500 359.0
5.42500 346.0
5.43500 338.0
5.44500 353.0
5.45500 363.0
5.46500 386.0
5.47500 400.0
5.48500 305.0
5.49500 370.0
5.50500 313.0
5.51500 312.0
5.52500 235.0
5.53500 262.0
5.54500 354.0
5.55500 295.0
5.56500 311.0
5.57500 329.0
5.58500 276.0
5.59500 267.0
5.60500 269.0
5.61500 161.0
5.62500 205.0
5.63500 168.0
5.64500 204.0
5.65500 202.0
5.66500 237.0
5.67500 302.0
5.68500 264.0
5.69500 286.0
5.70500 323.0
5.71500 259.0
5.72500 361.0
5.73500 306.0
5.74500 281.0
5.75500 378.0
5.76500 362.0
5.77500 333.0
5.78500 330.0
5.79500 386.0
5.80500 360.0
5.81500 324.0
5.82500 395.0
5.83500 431.0
5.84500 363.0
5.85500 246.0
5.86500 281.0
5.87500 256.0
5.88500 295.0
5.89500 264.0
5.90500 301.0
5.91500 398.0
5.92500 403.0
5.93500 502.0
5.94500 518.0
5.95500 519.0
5.96500 550.0
5.97500 485.0
5.98500 523.0
5.99500 530.0
6.00500 546.0
6.01500 685.0
6.02500 676.0
6.03500 544.0
6.04500 570.0
6.05500 435.0
6.06500 477.0
6.07500 606.0
6.08500 534.0
6.09500 401.0
6.10500 342.0
6.11500 249.0
6.12500 280.0
6.13500 249.0
6.14500 316.0
6.15500 318.0
6.16500 495.0
6.17500 556.0
6.18500 425.0
6.19500 355.0
6.20500 333.0
6.21500 439.0
6.22500 350.0
6.23500 300.0
6.24500 291.0
6.25500 345.0
6.26500 347.0
6.27500 302.0
6.28500 278.0
6.29500 226.0
6.30500 209.0
6.31500 236.0
6.32500 189.0
6.33500 176.0
6.34500 161.0
6.35500 240.0
6.36500 193.0
6.37500 188.0
6.38500 193.0
6.39500 228.0
6.40500 202.0
6.41500 224.0
6.42500 230.0
6.43500 203.0
6.44500 207.0
6.45500 183.0
6.46500 147.0
6.47500 205.0
6.48500 253.0
6.49500 250.0
6.50500 307.0
6.51500 227.0
6.52500 248.0
6.53500 253.0
6.54500 222.0
6.55500 226.0
6.56500 196.0
6.57500 345.0
6.58500 361.0
6.59500 295.0
6.60500 255.0
6.61500 242.0
6.62500 249.0
6.63500 256.0
6.64500 268.0
6.65500 343.0
6.66500 325.0
6.67500 341.0
6.68500 225.0
6.69500 207.0
6.70500 203.0
6.71500 227.0
6.72500 184.0
6.73500 404.0
6.74500 420.0
6.75500 366.0
6.76500 234.0
6.77500 221.0
6.78500 154.0
6.79500 272.0
6.80500 263.0
6.81500 246.0
6.82500 239.0
6.83500 295.0
6.84500 369.0
6.85500 269.0
6.86500 357.0
6.87500 441.0
6.88500 338.0
6.89500 353.0
6.90500 391.0
6.91500 332.0
6.92500 418.0
6.93500 367.0
6.94500 366.0
6.95500 360.0
6.96500 454.0
6.97500 440.0
6.98500 396.0
6.99500 355.0
7.00500 363.0
7.01500 497.0
7.02500 525.0
7.03500 473.0
7.04500 597.0
7.05500 749.0
7.06500 814.0
7.07500 908.0
7.08500 958.0
7.09500 951.0
7.10500 781.0
7.11500 750.0
7.12500 588.0
7.13500 517.0
7.14500 454.0
7.15500 484.0
7.16500 568.0
7.17500 526.0
7.18500 358.0
7.19500 463.0
7.20500 634.0
7.21500 647.0
7.22500 495.0
7.23500 510.0
7.24500 594.0
7.25500 381.0
7.26500 422.0
7.27500 396.0
7.28500 471.0
7.29500 342.0
7.30500 324.0
7.31500 340.0
7.32500 346.0
7.33500 326.0
7.34500 335.0
7.35500 379.0
7.36500 208.0
7.37500 322.0
7.38500 277.0
7.39500 273.0
7.40500 282.0
7.41500 412.0
7.42500 446.0
7.43500 459.0
7.44500 449.0
7.45500 479.0
7.46500 379.0
7.47500 471.0
7.48500 438.0
7.49500 403.0
7.50500 399.0
7.51500 404.0
7.52500 373.0
7.53500 272.0
7.54500 261.0
7.55500 301.0
7.56500 294.0
7.57500 347.0
7.58500 310.0
7.59500 305.0
7.60500 294.0
7.61500 353.0
7.62500 282.0
7.63500 391.0
7.64500 709.0
7.65500 709.0
7.66500 592.0
7.67500 551.0
7.68500 449.0
7.69500 486.0
7.70500 536.0
7.71500 347.0
7.72500 420.0
7.73500 475.0
7.74500 507.0
7.75500 521.0
7.76500 497.0
7.77500 804.0
7.78500 735.0
7.79500 689.0
7.80500 635.0
7.81500 721.0
7.82500 800.0
7.83500 546.0
7.84500 736.0
7.85500 666.0
7.86500 731.0
7.87500 715.0
7.88500 853.0
7.89500 769.0
7.90500 821.0
7.91500 891.0
7.92500 719.0
7.93500 567.0
7.94500 585.0
7.95500 654.0
7.96500 759.0
7.97500 779.0
7.98500 905.0
7.99500 734.0
