0.00500 36113532.0
0.01500 40348864.0
0.02500 31989044.0
0.03500 20595218.0
0.04500 12301815.0
0.05500 7758447.0
0.06500 6537923.0
0.07500 6814960.0
0.08500 7643444.0
0.09500 8574785.0
0.10500 9412717.0
0.11500 10360240.0
0.12500 11194694.0
0.13500 12011049.0
0.14500 12928330.0
0.15500 13683544.0
0.16500 14716407.0
0.17500 15451061.0
0.18500 16096420.0
0.19500 17047236.0
0.20500 17714652.0
0.21500 18632090.0
0.22500 19308996.0
0.23500 19876480.0
0.24500 20771336.0
0.25500 21400100.0
0.26500 22134578.0
0.27500 22852244.0
0.28500 23333080.0
0.29500 24269352.0
0.30500 25020844.0
0.31500 25641152.0
0.32500 26369168.0
0.33500 26691284.0
0.34500 27572552.0
0.35500 27990204.0
0.36500 28608492.0
0.37500 29390156.0
0.38500 29651790.0
0.39500 30391156.0
0.40500 30880020.0
0.41500 31377668.0
0.42500 32015776.0
0.43500 32204024.0
0.44500 32632124.0
0.45500 33241904.0
0.46500 33552256.0
0.47500 34101188.0
0.48500 34096232.0
0.49500 34355824.0
0.50500 34887664.0
0.51500 34980992.0
0.52500 35434308.0
0.53500 35552636.0
0.54500 35633564.0
0.55500 36204736.0
0.56500 36111584.0
0.57500 36373704.0
0.58500 36527676.0
0.59500 36410968.0
0.60500 36800628.0
0.61500 36527312.0
0.62500 36693304.0
0.63500 36509868.0
0.64500 35759384.0
0.65500 35588052.0
0.66500 34853520.0
0.67500 33593304.0
0.68500 31581854.0
0.69500 28467200.0
0.70500 25374586.0
0.71500 21687012.0
0.72500 18176324.0
0.73500 15597115.0
0.74500 13259772.0
0.75500 11622761.0
0.76500 10248280.0
0.77500 9078205.0
0.78500 8142020.0
0.79500 7300879.0
0.80500 6586523.0
0.81500 6019355.0
0.82500 5456006.0
0.83500 5047660.0
0.84500 4595403.0
0.85500 4206404.0
0.86500 3948511.0
0.87500 3652071.0
0.88500 3409973.0
0.89500 3171536.0
0.90500 2931787.0
0.91500 2760810.0
0.92500 2576182.0
0.93500 2429534.0
0.94500 2280168.0
0.95500 2131188.0
0.96500 2041055.0
0.97500 1903225.0
0.98500 1807422.0
0.99500 1719507.0
1.00500 1622797.0
1.01500 1551890.0
1.02500 1472092.0
1.03500 1394573.0
1.04500 1331787.0
1.05500 1255439.0
1.06500 1200782.0
1.07500 1149376.0
1.08500 1097449.0
1.09500 1046558.0
1.10500 1005077.0
1.11500 961837.0
1.12500 920163.0
1.13500 880200.0
1.14500 844111.0
1.15500 794951.0
1.16500 765693.0
1.17500 738766.0
1.18500 706380.0
1.19500 687161.0
1.20500 656062.0
1.21500 631462.0
1.22500 604792.0
1.23500 582273.0
1.24500 558402.0
1.25500 537753.0
1.26500 519333.0
1.27500 501371.0
1.28500 479950.0
1.29500 468187.0
1.30500 449071.0
1.31500 434596.0
1.32500 423415.0
1.33500 407608.0
1.34500 391722.0
1.35500 381950.0
1.36500 368994.0
1.37500 359025.0
1.38500 347821.0
1.39500 338018.0
1.40500 328713.0
1.41500 317865.0
1.42500 312508.0
1.43500 302475.0
1.44500 294030.0
1.45500 287396.0
1.46500 280020.0
1.47500 270508.0
1.48500 265745.0
1.49500 258733.0
1.50500 262300.0
1.51500 245421.0
1.52500 241003.0
1.53500 237274.0
1.54500 231221.0
1.55500 227879.0
1.56500 223380.0
1.57500 217706.0
1.58500 213946.0
1.59500 212760.0
1.60500 206426.0
1.61500 202001.0
1.62500 198150.0
1.63500 195090.0
1.64500 191322.0
1.65500 190064.0
1.66500 187859.0
1.67500 185274.0
1.68500 185916.0
1.69500 187104.0
1.70500 186838.0
1.71500 187583.0
1.72500 190195.0
1.73500 192518.0
1.74500 194674.0
1.75500 199467.0
1.76500 204935.0
1.77500 208219.0
1.78500 212642.0
1.79500 217927.0
1.80500 222753.0
1.81500 228332.0
1.82500 238053.0
1.83500 247557.0
1.84500 261174.0
1.85500 281532.0
1.86500 304764.0
1.87500 340714.0
1.88500 384881.0
1.89500 441181.0
1.90500 512226.0
1.91500 614546.0
1.92500 768263.0
1.93500 993477.0
1.94500 1389079.0
1.95500 2205022.0
1.96500 3546776.0
1.97500 5521334.0
1.98500 7785800.0
1.99500 9658565.0
2.00500 10784708.0
2.01500 10647602.0
2.02500 9251061.0
2.03500 7054531.0
2.04500 4813411.0
2.05500 2965991.0
2.06500 1778362.0
2.07500 1130045.0
2.08500 760436.0
2.09500 554393.0
2.10500 425905.0
2.11500 334571.0
2.12500 271055.0
2.13500 221497.0
2.14500 187755.0
2.15500 159224.0
2.16500 133428.0
2.17500 112341.0
2.18500 93104.0
2.19500 77017.0
2.20500 63483.0
2.21500 52797.0
2.22500 44781.0
2.23500 37648.0
2.24500 32508.0
2.25500 28888.0
2.26500 26356.0
2.27500 23815.0
2.28500 22353.0
2.29500 20621.0
2.30500 19142.0
2.31500 17933.0
2.32500 16530.0
2.33500 16106.0
2.34500 14996.0
2.35500 14081.0
2.36500 13231.0
2.37500 12303.0
2.38500 11664.0
2.39500 11145.0
2.40500 10374.0
2.41500 9792.0
2.42500 9512.0
2.43500 9366.0
2.44500 8704.0
2.45500 8464.0
2.46500 8368.0
2.47500 7970.0
2.48500 7644.0
2.49500 7372.0
2.50500 7337.0
2.51500 6855.0
2.52500 6723.0
2.53500 6569.0
2.54500 6415.0
2.55500 6162.0
2.56500 6033.0
2.57500 5948.0
2.58500 5581.0
2.59500 5511.0
2.60500 5432.0
2.61500 5204.0
2.62500 5340.0
2.63500 5266.0
2.64500 5150.0
2.65500 4939.0
2.66500 4749.0
2.67500 4711.0
2.68500 4535.0
2.69500 4622.0
2.70500 4356.0
2.71500 4177.0
2.72500 4155.0
2.73500 4025.0
2.74500 4006.0
2.75500 3846.0
2.76500 3895.0
2.77500 3896.0
2.78500 3759.0
2.79500 3601.0
2.80500 3572.0
2.81500 3578.0
2.82500 3511.0
2.83500 3401.0
2.84500 3455.0
2.85500 3293.0
2.86500 3224.0
2.87500 3048.0
2.88500 3166.0
2.89500 3112.0
2.90500 3046.0
2.91500 2992.0
2.92500 2964.0
2.93500 2929.0
2.94500 2867.0
2.95500 2866.0
2.96500 2798.0
2.97500 2804.0
2.98500 2852.0
2.99500 2760.0
3.00500 2760.0
3.01500 2689.0
3.02500 2552.0
3.03500 2575.0
3.04500 2577.0
3.05500 2516.0
3.06500 2476.0
3.07500 2479.0
3.08500 2374.0
3.09500 2336.0
3.10500 2441.0
3.11500 2457.0
3.12500 2354.0
3.13500 2279.0
3.14500 2409.0
3.15500 2319.0
3.16500 2309.0
3.17500 2198.0
3.18500 2387.0
3.19500 2282.0
3.20500 2207.0
3.21500 2176.0
3.22500 2127.0
3.23500 2156.0
3.24500 2083.0
3.25500 2175.0
3.26500 2152.0
3.27500 2035.0
3.28500 2081.0
3.29500 1969.0
3.30500 2034.0
3.31500 1960.0
3.32500 1952.0
3.33500 1971.0
3.34500 1925.0
3.35500 1924.0
3.36500 1893.0
3.37500 1822.0
3.38500 1832.0
3.39500 1868.0
3.40500 1826.0
3.41500 1799.0
3.42500 1826.0
3.43500 1800.0
3.44500 1748.0
3.45500 1785.0
3.46500 1793.0
3.47500 1764.0
3.48500 1794.0
3.49500 1654.0
3.50500 1672.0
3.51500 1729.0
3.52500 1663.0
3.53500 1696.0
3.54500 1734.0
3.55500 1826.0
3.56500 1762.0
3.57500 1733.0
3.58500 1804.0
3.59500 1792.0
3.60500 1687.0
3.61500 1767.0
3.62500 1928.0
3.63500 1859.0
3.64500 1877.0
3.65500 2045.0
3.66500 2032.0
3.67500 2195.0
3.68500 2293.0
3.69500 2431.0
3.70500 2705.0
3.71500 2934.0
3.72500 3514.0
3.73500 3965.0
3.74500 5128.0
3.75500 7678.0
3.76500 11132.0
3.77500 14952.0
3.78500 17953.0
3.79500 19274.0
3.80500 18873.0
3.81500 18767.0
3.82500 17840.0
3.83500 16848.0
3.84500 15194.0
3.85500 12702.0
3.86500 10815.0
3.87500 8592.0
3.88500 6814.0
3.89500 5587.0
3.90500 4206.0
3.91500 3509.0
3.92500 2966.0
3.93500 2326.0
3.94500 2013.0
3.95500 1761.0
3.96500 1586.0
3.97500 1500.0
3.98500 1421.0
3.99500 1254.0
4.00500 1166.0
4.01500 1132.0
4.02500 1051.0
4.03500 1035.0
4.04500 1009.0
4.05500 937.0
4.06500 943.0
4.07500 879.0
4.08500 861.0
4.09500 856.0
4.10500 882.0
4.11500 904.0
4.12500 811.0
4.13500 846.0
4.14500 799.0
4.15500 814.0
4.16500 792.0
4.17500 707.0
4.18500 699.0
4.19500 654.0
4.20500 717.0
4.21500 695.0
4.22500 676.0
4.23500 644.0
4.24500 629.0
4.25500 636.0
4.26500 644.0
4.27500 566.0
4.28500 573.0
4.29500 581.0
4.30500 569.0
4.31500 511.0
4.32500 496.0
4.33500 471.0
4.34500 521.0
4.35500 490.0
4.36500 548.0
4.37500 516.0
4.38500 564.0
4.39500 486.0
4.40500 505.0
4.41500 470.0
4.42500 463.0
4.43500 457.0
4.44500 472.0
4.45500 476.0
4.46500 482.0
4.47500 443.0
4.48500 453.0
4.49500 412.0
4.50500 487.0
4.51500 423.0
4.52500 433.0
4.53500 476.0
4.54500 413.0
4.55500 474.0
4.56500 475.0
4.57500 491.0
4.58500 442.0
4.59500 464.0
4.60500 425.0
4.61500 393.0
4.62500 366.0
4.63500 355.0
4.64500 440.0
4.65500 369.0
4.66500 372.0
4.67500 383.0
4.68500 379.0
4.69500 428.0
4.70500 390.0
4.71500 391.0
4.72500 432.0
4.73500 336.0
4.74500 324.0
4.75500 349.0
4.76500 400.0
4.77500 378.0
4.78500 395.0
4.79500 343.0
4.80500 329.0
4.81500 365.0
4.82500 312.0
4.83500 350.0
4.84500 287.0
4.85500 302.0
4.86500 314.0
4.87500 285.0
4.88500 312.0
4.89500 313.0
4.90500 301.0
4.91500 317.0
4.92500 283.0
4.93500 269.0
4.94500 281.0
4.95500 249.0
4.96500 288.0
4.97500 274.0
4.98500 270.0
4.99500 267.0
5.00500 252.0
5.01500 280.0
5.02500 243.0
5.03500 304.0
5.04500 291.0
5.05500 362.0
5.06500 426.0
5.07500 367.0
5.08500 343.0
5.09500 368.0
5.10500 483.0
5.11500 435.0
5.12500 497.0
5.13500 378.0
5.14500 398.0
5.15500 327.0
5.16500 274.0
5.17500 345.0
5.18500 346.0
5.19500 307.0
5.20500 275.0
5.21500 248.0
5.22500 294.0
5.23500 325.0
5.24500 273.0
5.25500 283.0
5.26500 203.0
5.27500 261.0
5.28500 255.0
5.29500 303.0
5.30500 284.0
5.31500 273.0
5.32500 277.0
5.33500 300.0
5.34500 287.0
5.35500 289.0
5.36500 252.0
5.37500 242.0
5.38500 235.0
5.39500 237.0
5.40500 217.0
5.41500 195.0
5.42500 203.0
5.43500 225.0
5.44500 256.0
5.45500 249.0
5.46500 285.0
5.47500 275.0
5.48500 282.0
5.49500 303.0
5.50500 300.0
5.51500 303.0
5.52500 293.0
5.53500 346.0
5.54500 357.0
5.55500 387.0
5.56500 469.0
5.57500 596.0
5.58500 772.0
5.59500 1192.0
5.60500 1826.0
5.61500 2474.0
5.62500 3070.0
5.63500 3662.0
5.64500 3832.0
5.65500 4177.0
5.66500 4273.0
5.67500 4717.0
5.68500 4944.0
5.69500 5146.0
5.70500 5135.0
5.71500 5030.0
5.72500 4789.0
5.73500 4403.0
5.74500 4114.0
5.75500 3609.0
5.76500 3085.0
5.77500 2481.0
5.78500 2016.0
5.79500 1726.0
5.80500 1339.0
5.81500 1085.0
5.82500 788.0
5.83500 639.0
5.84500 603.0
5.85500 500.0
5.86500 415.0
5.87500 383.0
5.88500 329.0
5.89500 241.0
5.90500 230.0
5.91500 234.0
5.92500 275.0
5.93500 215.0
5.94500 168.0
5.95500 209.0
5.96500 169.0
5.97500 168.0
5.98500 162.0
5.99500 158.0
6.00500 156.0
6.01500 140.0
6.02500 128.0
6.03500 133.0
6.04500 117.0
6.05500 131.0
6.06500 129.0
6.07500 125.0
6.08500 94.0
6.09500 76.0
6.10500 105.0
6.11500 118.0
6.12500 134.0
6.13500 134.0
6.14500 145.0
6.15500 142.0
6.16500 129.0
6.17500 116.0
6.18500 100.0
6.19500 99.0
6.20500 92.0
6.21500 110.0
6.22500 110.0
6.23500 115.0
6.24500 128.0
6.25500 103.0
6.26500 105.0
6.27500 117.0
6.28500 112.0
6.29500 124.0
6.30500 109.0
6.31500 123.0
6.32500 92.0
6.33500 108.0
6.34500 136.0
6.35500 108.0
6.36500 122.0
6.37500 114.0
6.38500 119.0
6.39500 105.0
6.40500 160.0
6.41500 113.0
6.42500 114.0
6.43500 76.0
6.44500 95.0
6.45500 106.0
6.46500 120.0
6.47500 115.0
6.48500 113.0
6.49500 92.0
6.50500 100.0
6.51500 103.0
6.52500 148.0
6.53500 109.0
6.54500 109.0
6.55500 114.0
6.56500 130.0
6.57500 100.0
6.58500 115.0
6.59500 97.0
6.60500 85.0
6.61500 86.0
6.62500 65.0
6.63500 97.0
6.64500 97.0
6.65500 60.0
6.66500 76.0
6.67500 54.0
6.68500 62.0
6.69500 81.0
6.70500 84.0
6.71500 131.0
6.72500 130.0
6.73500 152.0
6.74500 113.0
6.75500 137.0
6.76500 137.0
6.77500 125.0
6.78500 130.0
6.79500 140.0
6.80500 134.0
6.81500 195.0
6.82500 184.0
6.83500 148.0
6.84500 134.0
6.85500 111.0
6.86500 109.0
6.87500 106.0
6.88500 69.0
6.89500 89.0
6.90500 99.0
6.91500 99.0
6.92500 114.0
6.93500 108.0
6.94500 128.0
6.95500 140.0
6.96500 122.0
6.97500 138.0
6.98500 102.0
6.99500 97.0
7.00500 121.0
7.01500 121.0
7.02500 128.0
7.03500 92.0
7.04500 110.0
7.05500 109.0
7.06500 93.0
7.07500 197.0
7.08500 193.0
7.09500 204.0
7.10500 196.0
7.11500 169.0
7.12500 149.0
7.13500 203.0
7.14500 132.0
7.15500 112.0
7.16500 107.0
7.17500 132.0
7.18500 124.0
7.19500 105.0
7.20500 131.0
7.21500 193.0
7.22500 158.0
7.23500 153.0
7.24500 135.0
7.25500 147.0
7.26500 209.0
7.27500 207.0
7.28500 130.0
7.29500 142.0
7.30500 122.0
7.31500 155.0
7.32500 147.0
7.33500 95.0
7.34500 78.0
7.35500 107.0
7.36500 114.0
7.37500 92.0
7.38500 103.0
7.39500 133.0
7.40500 153.0
7.41500 144.0
7.42500 135.0
7.43500 164.0
7.44500 237.0
7.45500 256.0
7.46500 335.0
7.47500 373.0
7.48500 438.0
7.49500 478.0
7.50500 475.0
7.51500 472.0
7.52500 490.0
7.53500 506.0
7.54500 504.0
7.55500 543.0
7.56500 572.0
7.57500 530.0
7.58500 555.0
7.59500 471.0
7.60500 450.0
7.61500 498.0
7.62500 495.0
7.63500 433.0
7.64500 440.0
7.65500 348.0
7.66500 323.0
7.67500 314.0
7.68500 258.0
7.69500 242.0
7.70500 239.0
7.71500 256.0
7.72500 242.0
7.73500 221.0
7.74500 203.0
7.75500 189.0
7.76500 193.0
7.77500 192.0
7.78500 181.0
7.79500 165.0
7.80500 185.0
7.81500 169.0
7.82500 128.0
7.83500 112.0
7.84500 141.0
7.85500 123.0
7.86500 162.0
7.87500 164.0
7.88500 134.0
7.89500 125.0
7.90500 151.0
7.91500 127.0
7.92500 112.0
7.93500 95.0
7.94500 101.0
7.95500 108.0
7.96500 94.0
7.97500 63.0
7.98500 138.0
7.99500 119.0
8.00500 100.0
8.01500 110.0
8.02500 97.0
8.03500 121.0
8.04500 132.0
8.05500 106.0
8.06500 114.0
8.07500 84.0
8.08500 116.0
8.09500 104.0
8.10500 113.0
8.11500 99.0
8.12500 118.0
8.13500 139.0
8.14500 119.0
8.15500 114.0
8.16500 128.0
8.17500 138.0
8.18500 133.0
8.19500 198.0
8.20500 127.0
8.21500 170.0
8.22500 133.0
8.23500 145.0
8.24500 112.0
8.25500 110.0
8.26500 121.0
8.27500 103.0
8.28500 118.0
8.29500 125.0
8.30500 121.0
8.31500 131.0
8.32500 131.0
8.33500 148.0
8.34500 121.0
8.35500 113.0
8.36500 110.0
8.37500 85.0
8.38500 100.0
8.39500 83.0
8.40500 109.0
8.41500 94.0
8.42500 104.0
8.43500 115.0
8.44500 119.0
8.45500 116.0
8.46500 141.0
8.47500 134.0
8.48500 127.0
8.49500 132.0
8.50500 123.0
8.51500 125.0
8.52500 129.0
8.53500 69.0
8.54500 105.0
8.55500 91.0
8.56500 112.0
8.57500 134.0
8.58500 103.0
8.59500 81.0
8.60500 83.0
8.61500 65.0
8.62500 65.0
8.63500 72.0
8.64500 62.0
8.65500 53.0
8.66500 68.0
8.67500 65.0
8.68500 64.0
8.69500 86.0
8.70500 83.0
8.71500 56.0
8.72500 92.0
8.73500 83.0
8.74500 120.0
8.75500 114.0
8.76500 89.0
8.77500 97.0
8.78500 92.0
8.79500 91.0
8.80500 70.0
8.81500 80.0
8.82500 81.0
8.83500 71.0
8.84500 64.0
8.85500 91.0
8.86500 93.0
8.87500 82.0
8.88500 74.0
8.89500 72.0
8.90500 110.0
8.91500 92.0
8.92500 88.0
8.93500 84.0
8.94500 105.0
8.95500 105.0
8.96500 69.0
8.97500 79.0
8.98500 90.0
8.99500 96.0
9.00500 103.0
9.01500 95.0
9.02500 80.0
9.03500 106.0
9.04500 64.0
9.05500 57.0
9.06500 72.0
9.07500 84.0
9.08500 64.0
9.09500 75.0
9.10500 61.0
9.11500 74.0
9.12500 73.0
9.13500 75.0
9.14500 106.0
9.15500 90.0
9.16500 98.0
9.17500 94.0
9.18500 84.0
9.19500 111.0
9.20500 139.0
9.21500 153.0
9.22500 170.0
9.23500 139.0
9.24500 122.0
9.25500 159.0
9.26500 127.0
9.27500 120.0
9.28500 138.0
9.29500 158.0
9.30500 151.0
9.31500 171.0
9.32500 200.0
9.33500 204.0
9.34500 222.0
9.35500 254.0
9.36500 288.0
9.37500 293.0
9.38500 302.0
9.39500 272.0
9.40500 253.0
9.41500 272.0
9.42500 234.0
9.43500 231.0
9.44500 268.0
9.45500 255.0
9.46500 268.0
9.47500 294.0
9.48500 304.0
9.49500 339.0
9.50500 287.0
9.51500 264.0
9.52500 241.0
9.53500 253.0
9.54500 248.0
9.55500 242.0
9.56500 215.0
9.57500 220.0
9.58500 177.0
9.59500 187.0
9.60500 188.0
9.61500 253.0
9.62500 169.0
9.63500 202.0
9.64500 182.0
9.65500 157.0
9.66500 148.0
9.67500 129.0
9.68500 145.0
9.69500 106.0
9.70500 126.0
9.71500 103.0
9.72500 90.0
9.73500 141.0
9.74500 118.0
9.75500 94.0
9.76500 112.0
9.77500 114.0
9.78500 74.0
9.79500 84.0
9.80500 91.0
9.81500 105.0
9.82500 80.0
9.83500 85.0
9.84500 77.0
9.85500 62.0
9.86500 64.0
9.87500 72.0
9.88500 65.0
9.89500 80.0
9.90500 75.0
9.91500 109.0
9.92500 131.0
9.93500 104.0
9.94500 126.0
9.95500 131.0
9.96500 174.0
9.97500 147.0
9.98500 110.0
9.99500 101.0
