0.00500 30815152.0
0.01500 34687744.0
0.02500 30652076.0
0.03500 24124360.0
0.04500 16748333.0
0.05500 9927976.0
0.06500 5980781.0
0.07500 4929534.0
0.08500 5155156.0
0.09500 5713754.0
0.10500 6276464.0
0.11500 6921874.0
0.12500 7464850.0
0.13500 7988307.0
0.14500 8568691.0
0.15500 9086237.0
0.16500 9738048.0
0.17500 10256434.0
0.18500 10728097.0
0.19500 11260197.0
0.20500 11759504.0
0.21500 12349308.0
0.22500 12825297.0
0.23500 13206639.0
0.24500 13714603.0
0.25500 14182144.0
0.26500 14687615.0
0.27500 15245811.0
0.28500 15519425.0
0.29500 16038508.0
0.30500 16432424.0
0.31500 16812006.0
0.32500 17185370.0
0.33500 17455304.0
0.34500 17769752.0
0.35500 18260692.0
0.36500 18618524.0
0.37500 19123704.0
0.38500 19359048.0
0.39500 19626552.0
0.40500 19910718.0
0.41500 20151604.0
0.42500 20501032.0
0.43500 20844688.0
0.44500 20963752.0
0.45500 21214072.0
0.46500 21370820.0
0.47500 21663392.0
0.48500 21836464.0
0.49500 22011846.0
0.50500 22232012.0
0.51500 22357162.0
0.52500 22614420.0
0.53500 22663576.0
0.54500 22649774.0
0.55500 23002484.0
0.56500 23058340.0
0.57500 23140984.0
0.58500 23106648.0
0.59500 23051168.0
0.60500 23139988.0
0.61500 23032084.0
0.62500 22831504.0
0.63500 22669768.0
0.64500 22349488.0
0.65500 22000388.0
0.66500 21400788.0
0.67500 20504032.0
0.68500 19204360.0
0.69500 17269128.0
0.70500 15007307.0
0.71500 12573749.0
0.72500 10475387.0
0.73500 8778142.0
0.74500 7566627.0
0.75500 6618471.0
0.76500 5862522.0
0.77500 5230866.0
0.78500 4687787.0
0.79500 4245337.0
0.80500 3850922.0
0.81500 3532847.0
0.82500 3251033.0
0.83500 3005949.0
0.84500 2777464.0
0.85500 2569762.0
0.86500 2387216.0
0.87500 2230053.0
0.88500 2064314.0
0.89500 1923927.0
0.90500 1792374.0
0.91500 1689772.0
0.92500 1582192.0
0.93500 1481235.0
0.94500 1403926.0
0.95500 1322907.0
0.96500 1256501.0
0.97500 1200142.0
0.98500 1134537.0
0.99500 1071207.0
1.00500 1012138.0
1.01500 967294.0
1.02500 918732.0
1.03500 874126.0
1.04500 833249.0
1.05500 791505.0
1.06500 760267.0
1.07500 730149.0
1.08500 694981.0
1.09500 665200.0
1.10500 634613.0
1.11500 602211.0
1.12500 587889.0
1.13500 570320.0
1.14500 551089.0
1.15500 534331.0
1.16500 516404.0
1.17500 496684.0
1.18500 481933.0
1.19500 461889.0
1.20500 442488.0
1.21500 432849.0
1.22500 416196.0
1.23500 402676.0
1.24500 392446.0
1.25500 373524.0
1.26500 358095.0
1.27500 353363.0
1.28500 340791.0
1.29500 331263.0
1.30500 322867.0
1.31500 309475.0
1.32500 300667.0
1.33500 295806.0
1.34500 284846.0
1.35500 278897.0
1.36500 273553.0
1.37500 263212.0
1.38500 256632.0
1.39500 255634.0
1.40500 247436.0
1.41500 238395.0
1.42500 239041.0
1.43500 233581.0
1.44500 221463.0
1.45500 220362.0
1.46500 215878.0
1.47500 209783.0
1.48500 212157.0
1.49500 210833.0
1.50500 200089.0
1.51500 197235.0
1.52500 198775.0
1.53500 196102.0
1.54500 195778.0
1.55500 199000.0
1.56500 192412.0
1.57500 188889.0
1.58500 191880.0
1.59500 186231.0
1.60500 177282.0
1.61500 177551.0
1.62500 175720.0
1.63500 168789.0
1.64500 169815.0
1.65500 172155.0
1.66500 170192.0
1.67500 172822.0
1.68500 179484.0
1.69500 179841.0
1.70500 183937.0
1.71500 194105.0
1.72500 195482.0
1.73500 196883.0
1.74500 208992.0
1.75500 217486.0
1.76500 219899.0
1.77500 234385.0
1.78500 252508.0
1.79500 261552.0
1.80500 279551.0
1.81500 318553.0
1.82500 345185.0
1.83500 389817.0
1.84500 471923.0
1.85500 556745.0
1.86500 665707.0
1.87500 857944.0
1.88500 1118047.0
1.89500 1523633.0
1.90500 2460647.0
1.91500 4225535.0
1.92500 6087461.0
1.93500 7155545.0
1.94500 6762023.0
1.95500 5194364.0
1.96500 3276059.0
1.97500 1984742.0
1.98500 1293638.0
1.99500 924204.0
2.00500 690126.0
2.01500 547111.0
2.02500 444955.0
2.03500 356860.0
2.04500 292024.0
2.05500 247331.0
2.06500 208025.0
2.07500 178011.0
2.08500 152013.0
2.09500 130069.0
2.10500 112403.0
2.11500 101055.0
2.12500 89096.0
2.13500 76445.0
2.14500 69469.0
2.15500 64010.0
2.16500 57324.0
2.17500 53417.0
2.18500 49342.0
2.19500 44877.0
2.20500 41448.0
2.21500 39559.0
2.22500 37503.0
2.23500 34140.0
2.24500 32443.0
2.25500 31222.0
2.26500 29255.0
2.27500 27691.0
2.28500 27007.0
2.29500 25373.0
2.30500 24368.0
2.31500 23914.0
2.32500 23753.0
2.33500 22671.0
2.34500 21248.0
2.35500 20946.0
2.36500 20075.0
2.37500 18820.0
2.38500 18497.0
2.39500 17674.0
2.40500 17032.0
2.41500 17015.0
2.42500 16232.0
2.43500 15425.0
2.44500 14638.0
2.45500 14878.0
2.46500 14716.0
2.47500 14196.0
2.48500 13728.0
2.49500 13503.0
2.50500 12737.0
2.51500 12214.0
2.52500 12306.0
2.53500 11593.0
2.54500 11124.0
2.55500 10983.0
2.56500 10928.0
2.57500 10409.0
2.58500 10134.0
2.59500 9944.0
2.60500 9597.0
2.61500 9918.0
2.62500 9639.0
2.63500 9713.0
2.64500 9131.0
2.65500 8855.0
2.66500 9106.0
2.67500 8822.0
2.68500 8475.0
2.69500 8586.0
2.70500 8705.0
2.71500 8180.0
2.72500 7745.0
2.73500 8088.0
2.74500 7911.0
2.75500 7706.0
2.76500 7580.0
2.77500 7350.0
2.78500 7085.0
2.79500 6839.0
2.80500 6975.0
2.81500 6475.0
2.82500 6036.0
2.83500 5819.0
2.84500 5805.0
2.85500 5471.0
2.86500 5440.0
2.87500 5313.0
2.88500 5017.0
2.89500 4903.0
2.90500 4797.0
2.91500 4746.0
2.92500 4577.0
2.93500 4425.0
2.94500 4524.0
2.95500 4443.0
2.96500 3922.0
2.97500 4068.0
2.98500 4130.0
2.99500 3953.0
3.00500 3895.0
3.01500 3950.0
3.02500 4048.0
3.03500 3658.0
3.04500 3615.0
3.05500 3678.0
3.06500 3718.0
3.07500 3728.0
3.08500 3774.0
3.09500 3830.0
3.10500 3670.0
3.11500 3517.0
3.12500 3670.0
3.13500 3520.0
3.14500 3498.0
3.15500 3674.0
3.16500 3366.0
3.17500 3383.0
3.18500 3556.0
3.19500 3406.0
3.20500 3369.0
3.21500 3404.0
3.22500 3326.0
3.23500 3238.0
3.24500 3089.0
3.25500 2968.0
3.26500 2995.0
3.27500 3000.0
3.28500 2947.0
3.29500 2746.0
3.30500 2815.0
3.31500 2789.0
3.32500 2914.0
3.33500 2864.0
3.34500 2770.0
3.35500 2699.0
3.36500 2755.0
3.37500 2763.0
3.38500 2767.0
3.39500 2939.0
3.40500 2965.0
3.41500 2971.0
3.42500 2842.0
3.43500 3052.0
3.44500 3104.0
3.45500 3059.0
3.46500 3007.0
3.47500 3064.0
3.48500 3276.0
3.49500 3154.0
3.50500 3341.0
3.51500 3315.0
3.52500 3508.0
3.53500 3698.0
3.54500 3991.0
3.55500 4453.0
3.56500 4608.0
3.57500 5055.0
3.58500 6204.0
3.59500 6630.0
3.60500 7410.0
3.61500 9283.0
3.62500 10851.0
3.63500 14163.0
3.64500 22986.0
3.65500 38467.0
3.66500 56524.0
3.67500 66920.0
3.68500 64265.0
3.69500 52090.0
3.70500 37210.0
3.71500 25300.0
3.72500 18016.0
3.73500 13332.0
3.74500 10712.0
3.75500 9105.0
3.76500 7546.0
3.77500 6751.0
3.78500 5524.0
3.79500 4816.0
3.80500 4149.0
3.81500 3638.0
3.82500 3305.0
3.83500 2893.0
3.84500 2509.0
3.85500 2334.0
3.86500 2221.0
3.87500 2126.0
3.88500 1874.0
3.89500 1796.0
3.90500 1554.0
3.91500 1512.0
3.92500 1375.0
3.93500 1297.0
3.94500 1233.0
3.95500 1187.0
3.96500 1106.0
3.97500 1098.0
3.98500 1035.0
3.99500 977.0
4.00500 1034.0
4.01500 891.0
4.02500 971.0
4.03500 925.0
4.04500 946.0
4.05500 1302.0
4.06500 1164.0
4.07500 1168.0
4.08500 1030.0
4.09500 1048.0
4.10500 936.0
4.11500 896.0
4.12500 838.0
4.13500 832.0
4.14500 795.0
4.15500 741.0
4.16500 741.0
4.17500 850.0
4.18500 718.0
4.19500 613.0
4.20500 654.0
4.21500 719.0
4.22500 724.0
4.23500 730.0
4.24500 720.0
4.25500 615.0
4.26500 622.0
4.27500 546.0
4.28500 641.0
4.29500 554.0
4.30500 642.0
4.31500 642.0
4.32500 687.0
4.33500 617.0
4.34500 590.0
4.35500 601.0
4.36500 569.0
4.37500 523.0
4.38500 577.0
4.39500 551.0
4.40500 486.0
4.41500 599.0
4.42500 524.0
4.43500 628.0
4.44500 615.0
4.45500 656.0
4.46500 639.0
4.47500 707.0
4.48500 677.0
4.49500 709.0
4.50500 653.0
4.51500 682.0
4.52500 597.0
4.53500 540.0
4.54500 601.0
4.55500 546.0
4.56500 694.0
4.57500 708.0
4.58500 635.0
4.59500 618.0
4.60500 621.0
4.61500 631.0
4.62500 705.0
4.63500 654.0
4.64500 583.0
4.65500 582.0
4.66500 479.0
4.67500 437.0
4.68500 489.0
4.69500 506.0
4.70500 472.0
4.71500 503.0
4.72500 517.0
4.73500 572.0
4.74500 566.0
4.75500 762.0
4.76500 615.0
4.77500 586.0
4.78500 732.0
4.79500 634.0
4.80500 755.0
4.81500 838.0
4.82500 642.0
4.83500 867.0
4.84500 887.0
4.85500 802.0
4.86500 779.0
4.87500 737.0
4.88500 542.0
4.89500 563.0
4.90500 554.0
4.91500 527.0
4.92500 489.0
4.93500 596.0
4.94500 598.0
4.95500 444.0
4.96500 548.0
4.97500 482.0
4.98500 487.0
4.99500 444.0
5.00500 468.0
5.01500 451.0
5.02500 473.0
5.03500 370.0
5.04500 418.0
5.05500 537.0
5.06500 462.0
5.07500 600.0
5.08500 439.0
5.09500 404.0
5.10500 423.0
5.11500 475.0
5.12500 475.0
5.13500 584.0
5.14500 890.0
5.15500 685.0
5.16500 717.0
5.17500 597.0
5.18500 587.0
5.19500 589.0
5.20500 635.0
5.21500 647.0
5.22500 585.0
5.23500 588.0
5.24500 609.0
5.25500 418.0
5.26500 526.0
5.27500 496.0
5.28500 469.0
5.29500 446.0
5.30500 575.0
5.31500 583.0
5.32500 650.0
5.33500 852.0
5.34500 864.0
5.35500 959.0
5.36500 997.0
5.37500 1036.0
5.38500 1142.0
5.39500 1529.0
5.40500 2089.0
5.41500 2695.0
5.42500 3772.0
5.43500 5721.0
5.44500 8770.0
5.45500 12438.0
5.46500 14100.0
5.47500 13322.0
5.48500 11011.0
5.49500 8203.0
5.50500 6147.0
5.51500 4747.0
5.52500 3778.0
5.53500 3048.0
5.54500 2676.0
5.55500 2300.0
5.56500 2060.0
5.57500 1687.0
5.58500 1511.0
5.59500 1575.0
5.60500 1381.0
5.61500 1233.0
5.62500 1036.0
5.63500 927.0
5.64500 909.0
5.65500 694.0
5.66500 751.0
5.67500 643.0
5.68500 732.0
5.69500 705.0
5.70500 651.0
5.71500 499.0
5.72500 430.0
5.73500 458.0
5.74500 458.0
5.75500 403.0
5.76500 371.0
5.77500 359.0
5.78500 373.0
5.79500 440.0
5.80500 446.0
5.81500 320.0
5.82500 357.0
5.83500 363.0
5.84500 367.0
5.85500 418.0
5.86500 428.0
5.87500 422.0
5.88500 484.0
5.89500 375.0
5.90500 403.0
5.91500 381.0
5.92500 309.0
5.93500 417.0
5.94500 425.0
5.95500 525.0
5.96500 398.0
5.97500 358.0
5.98500 263.0
5.99500 296.0
6.00500 277.0
6.01500 353.0
6.02500 334.0
6.03500 290.0
6.04500 303.0
6.05500 403.0
6.06500 378.0
6.07500 380.0
6.08500 359.0
6.09500 319.0
6.10500 322.0
6.11500 423.0
6.12500 408.0
6.13500 434.0
6.14500 320.0
6.15500 260.0
6.16500 264.0
6.17500 290.0
6.18500 218.0
6.19500 348.0
6.20500 324.0
6.21500 319.0
6.22500 286.0
6.23500 308.0
6.24500 265.0
6.25500 238.0
6.26500 258.0
6.27500 154.0
6.28500 178.0
6.29500 162.0
6.30500 170.0
6.31500 138.0
6.32500 134.0
6.33500 181.0
6.34500 173.0
6.35500 174.0
6.36500 223.0
6.37500 202.0
6.38500 226.0
6.39500 244.0
6.40500 126.0
6.41500 168.0
6.42500 195.0
6.43500 218.0
6.44500 154.0
6.45500 185.0
6.46500 188.0
6.47500 202.0
6.48500 283.0
6.49500 250.0
6.50500 270.0
6.51500 263.0
6.52500 173.0
6.53500 201.0
6.54500 211.0
6.55500 222.0
6.56500 263.0
6.57500 220.0
6.58500 196.0
6.59500 254.0
6.60500 311.0
6.61500 342.0
6.62500 295.0
6.63500 335.0
6.64500 303.0
6.65500 300.0
6.66500 258.0
6.67500 234.0
6.68500 211.0
6.69500 238.0
6.70500 231.0
6.71500 179.0
6.72500 282.0
6.73500 269.0
6.74500 317.0
6.75500 224.0
6.76500 207.0
6.77500 209.0
6.78500 204.0
6.79500 176.0
6.80500 192.0
6.81500 287.0
6.82500 344.0
6.83500 272.0
6.84500 219.0
6.85500 242.0
6.86500 227.0
6.87500 242.0
6.88500 271.0
6.89500 315.0
6.90500 277.0
6.91500 304.0
6.92500 255.0
6.93500 299.0
6.94500 309.0
6.95500 228.0
6.96500 231.0
6.97500 269.0
6.98500 227.0
6.99500 281.0
7.00500 264.0
7.01500 297.0
7.02500 271.0
7.03500 341.0
7.04500 222.0
7.05500 224.0
7.06500 187.0
7.07500 190.0
7.08500 191.0
7.09500 227.0
7.10500 248.0
7.11500 217.0
7.12500 221.0
7.13500 220.0
7.14500 220.0
7.15500 222.0
7.16500 215.0
7.17500 215.0
7.18500 247.0
7.19500 244.0
7.20500 231.0
7.21500 266.0
7.22500 359.0
7.23500 353.0
7.24500 470.0
7.25500 550.0
7.26500 500.0
7.27500 532.0
7.28500 514.0
7.29500 545.0
7.30500 499.0
7.31500 448.0
7.32500 448.0
7.33500 437.0
7.34500 394.0
7.35500 377.0
7.36500 305.0
7.37500 319.0
7.38500 392.0
7.39500 334.0
7.40500 408.0
7.41500 465.0
7.42500 460.0
7.43500 407.0
7.44500 297.0
7.45500 332.0
7.46500 271.0
7.47500 330.0
7.48500 359.0
7.49500 332.0
7.50500 237.0
7.51500 247.0
7.52500 218.0
7.53500 187.0
7.54500 275.0
7.55500 194.0
7.56500 163.0
7.57500 147.0
7.58500 192.0
7.59500 187.0
7.60500 253.0
7.61500 250.0
7.62500 447.0
7.63500 581.0
7.64500 325.0
7.65500 282.0
7.66500 374.0
7.67500 393.0
7.68500 313.0
7.69500 334.0
7.70500 442.0
7.71500 377.0
7.72500 319.0
7.73500 271.0
7.74500 362.0
7.75500 265.0
7.76500 212.0
7.77500 207.0
7.78500 257.0
7.79500 301.0
7.80500 307.0
7.81500 210.0
7.82500 236.0
7.83500 230.0
7.84500 228.0
7.85500 241.0
7.86500 162.0
7.87500 173.0
7.88500 269.0
7.89500 326.0
7.90500 229.0
7.91500 225.0
7.92500 276.0
7.93500 241.0
7.94500 319.0
7.95500 255.0
7.96500 183.0
7.97500 151.0
7.98500 246.0
7.99500 298.0
