0.00520 76.0
0.01020 78.0
0.01520 81.0
0.02020 80.0
0.02520 73.0
0.03020 86.0
0.03520 92.0
0.04020 75.0
0.04520 79.0
0.05020 68.0
0.05520 87.0
0.06020 126.0
0.06520 104.0
0.07020 96.0
0.07520 106.0
0.08020 111.0
0.08520 79.0
0.09020 84.0
0.09520 94.0
0.10020 70.0
0.10520 74.0
0.11020 98.0
0.11520 92.0
0.12020 101.0
0.12520 110.0
0.13020 100.0
0.13520 116.0
0.14020 96.0
0.14520 96.0
0.15020 76.0
0.15520 85.0
0.16020 76.0
0.16520 94.0
0.17020 88.0
0.17520 79.0
0.18020 86.0
0.18520 96.0
0.19020 72.0
0.19520 84.0
0.20020 57.0
0.20520 103.0
0.21020 76.0
0.21520 74.0
0.22020 89.0
0.22520 85.0
0.23020 93.0
0.23520 79.0
0.24020 105.0
0.24520 98.0
0.25020 132.0
0.25520 150.0
0.26020 147.0
0.26520 130.0
0.27020 123.0
0.27520 122.0
0.28020 119.0
0.28520 121.0
0.29020 90.0
0.29520 120.0
0.30020 127.0
0.30520 125.0
0.31020 142.0
0.31520 127.0
0.32020 134.0
0.32520 126.0
0.33020 152.0
0.33520 131.0
0.34020 173.0
0.34520 144.0
0.35020 141.0
0.35520 141.0
0.36020 137.0
0.36520 152.0
0.37020 152.0
0.37520 160.0
0.38020 181.0
0.38520 193.0
0.39020 208.0
0.39520 240.0
0.40020 221.0
0.40520 203.0
0.41020 231.0
0.41520 224.0
0.42020 209.0
0.42520 235.0
0.43020 245.0
0.43520 264.0
0.44020 298.0
0.44520 338.0
0.45020 311.0
0.45520 364.0
0.46020 369.0
0.46520 362.0
0.47020 428.0
0.47520 494.0
0.48020 485.0
0.48520 542.0
0.49020 586.0
0.49520 551.0
0.50020 615.0
0.50520 601.0
0.51020 625.0
0.51520 620.0
0.52020 731.0
0.52520 747.0
0.53020 794.0
0.53520 807.0
0.54020 810.0
0.54520 806.0
0.55020 854.0
0.55520 932.0
0.56020 934.0
0.56520 1055.0
0.57020 1062.0
0.57520 1086.0
0.58020 1159.0
0.58520 1141.0
0.59020 1183.0
0.59520 1191.0
0.60020 1196.0
0.60520 1292.0
0.61020 1326.0
0.61520 1435.0
0.62020 1395.0
0.62520 1362.0
0.63020 1393.0
0.63520 1481.0
0.64020 1568.0
0.64520 1544.0
0.65020 1511.0
0.65520 1585.0
0.66020 1658.0
0.66520 1585.0
0.67020 1696.0
0.67520 1741.0
0.68020 1759.0
0.68520 1828.0
0.69020 1850.0
0.69520 1794.0
0.70020 1928.0
0.70520 1849.0
0.71020 1955.0
0.71520 1987.0
0.72020 1966.0
0.72520 2051.0
0.73020 2092.0
0.73520 2138.0
0.74020 2144.0
0.74520 2173.0
0.75020 2278.0
0.75520 2180.0
0.76020 2224.0
0.76520 2310.0
0.77020 2283.0
0.77520 2302.0
0.78020 2323.0
0.78520 2417.0
0.79020 2439.0
0.79520 2464.0
0.80020 2493.0
0.80520 2594.0
0.81020 2630.0
0.81520 2587.0
0.82020 2685.0
0.82520 2772.0
0.83020 2754.0
0.83520 2792.0
0.84020 2844.0
0.84520 2906.0
0.85020 3021.0
0.85520 3021.0
0.86020 3096.0
0.86520 3255.0
0.87020 3198.0
0.87520 3287.0
0.88020 3408.0
0.88520 3482.0
0.89020 3596.0
0.89520 3754.0
0.90020 3736.0
0.90520 4049.0
0.91020 4270.0
0.91520 4417.0
0.92020 4680.0
0.92520 4953.0
0.93020 4981.0
0.93520 5440.0
0.94020 6052.0
0.94520 6549.0
0.95020 7068.0
0.95520 8205.0
0.96020 9230.0
0.96520 10758.0
0.97020 13585.0
0.97520 18084.0
0.98020 31944.0
0.98520 122374.0
0.99020 792477.0
0.99520 3025951.0
1.00020 6020709.0
1.00520 8498950.0
1.01020 8560929.0
1.01520 6205196.0
1.02020 3020355.0
1.02520 872452.0
1.03020 144622.0
1.03520 32132.0
1.04020 18032.0
1.04520 13222.0
1.05020 10935.0
1.05520 9071.0
1.06020 7903.0
1.06520 6990.0
1.07020 6164.0
1.07520 5830.0
1.08020 5345.0
1.08520 4911.0
1.09020 4513.0
1.09520 4447.0
1.10020 4128.0
1.10520 4003.0
1.11020 3811.0
1.11520 3668.0
1.12020 3479.0
1.12520 3395.0
1.13020 3185.0
1.13520 3046.0
1.14020 3094.0
1.14520 2970.0
1.15020 2887.0
1.15520 2832.0
1.16020 2816.0
1.16520 2716.0
1.17020 2605.0
1.17520 2600.0
1.18020 2557.0
1.18520 2513.0
1.19020 2304.0
1.19520 2372.0
1.20020 2250.0
1.20520 2346.0
1.21020 2182.0
1.21520 2286.0
1.22020 2186.0
1.22520 2247.0
1.23020 2170.0
1.23520 2062.0
1.24020 2067.0
1.24520 1978.0
1.25020 1947.0
1.25520 1881.0
1.26020 1885.0
1.26520 1875.0
1.27020 1873.0
1.27520 1854.0
1.28020 1810.0
1.28520 1682.0
1.29020 1686.0
1.29520 1592.0
1.30020 1713.0
1.30520 1684.0
1.31020 1678.0
1.31520 1555.0
1.32020 1616.0
1.32520 1526.0
1.33020 1501.0
1.33520 1505.0
1.34020 1444.0
1.34520 1383.0
1.35020 1394.0
1.35520 1331.0
1.36020 1345.0
1.36520 1306.0
1.37020 1246.0
1.37520 1233.0
1.38020 1185.0
1.38520 1196.0
1.39020 1121.0
1.39520 1097.0
1.40020 1060.0
1.40520 1081.0
1.41020 1019.0
1.41520 1035.0
1.42020 955.0
1.42520 893.0
1.43020 862.0
1.43520 780.0
1.44020 810.0
1.44520 701.0
1.45020 784.0
1.45520 726.0
1.46020 675.0
1.46520 613.0
1.47020 553.0
1.47520 545.0
1.48020 546.0
1.48520 535.0
1.49020 499.0
1.49520 489.0
1.50020 411.0
1.50520 389.0
1.51020 337.0
1.51520 361.0
1.52020 329.0
1.52520 310.0
1.53020 283.0
1.53520 269.0
1.54020 273.0
1.54520 234.0
1.55020 220.0
1.55520 218.0
1.56020 197.0
1.56520 206.0
1.57020 176.0
1.57520 167.0
1.58020 155.0
1.58520 168.0
1.59020 168.0
1.59520 155.0
1.60020 166.0
1.60520 154.0
1.61020 163.0
1.61520 168.0
1.62020 128.0
1.62520 177.0
1.63020 150.0
1.63520 143.0
1.64020 125.0
1.64520 135.0
1.65020 149.0
1.65520 135.0
1.66020 120.0
1.66520 145.0
1.67020 142.0
1.67520 113.0
1.68020 127.0
1.68520 113.0
1.69020 118.0
1.69520 136.0
1.70020 123.0
1.70520 123.0
1.71020 150.0
1.71520 127.0
1.72020 127.0
1.72520 139.0
1.73020 145.0
1.73520 138.0
1.74020 134.0
1.74520 127.0
1.75020 122.0
1.75520 112.0
1.76020 135.0
1.76520 158.0
1.77020 120.0
1.77520 110.0
1.78020 90.0
1.78520 78.0
1.79020 70.0
1.79520 86.0
1.80020 87.0
1.80520 66.0
1.81020 71.0
1.81520 80.0
1.82020 65.0
1.82520 88.0
1.83020 63.0
1.83520 79.0
1.84020 59.0
1.84520 67.0
1.85020 51.0
1.85520 74.0
1.86020 62.0
1.86520 53.0
1.87020 65.0
1.87520 83.0
1.88020 68.0
1.88520 96.0
1.89020 93.0
1.89520 108.0
1.90020 68.0
1.90520 96.0
1.91020 89.0
1.91520 101.0
1.92020 99.0
1.92520 76.0
1.93020 99.0
1.93520 116.0
1.94020 92.0
1.94520 109.0
1.95020 95.0
1.95520 83.0
1.96020 79.0
1.96520 65.0
1.97020 96.0
1.97520 64.0
1.98020 94.0
1.98520 89.0
1.99020 86.0
1.99520 76.0
2.00020 91.0
2.00520 91.0
