0.00500 14077320.0
0.01500 15681882.0
0.02500 13402366.0
0.03500 10001930.0
0.04500 6594335.0
0.05500 3813052.0
0.06500 2292127.0
0.07500 1938006.0
0.08500 2046761.0
0.09500 2241978.0
0.10500 2440110.0
0.11500 2643438.0
0.12500 2834030.0
0.13500 3050221.0
0.14500 3250263.0
0.15500 3448576.0
0.16500 3652405.0
0.17500 3854644.0
0.18500 4051295.0
0.19500 4223858.0
0.20500 4412608.0
0.21500 4607414.0
0.22500 4800356.0
0.23500 4972896.0
0.24500 5190084.0
0.25500 5361176.0
0.26500 5532352.0
0.27500 5674748.0
0.28500 5844538.0
0.29500 6021495.0
0.30500 6213664.0
0.31500 6355677.0
0.32500 6516410.0
0.33500 6673883.0
0.34500 6855595.0
0.35500 6987684.0
0.36500 7125310.0
0.37500 7302879.0
0.38500 7426273.0
0.39500 7519829.0
0.40500 7636829.0
0.41500 7733216.0
0.42500 7591854.0
0.43500 6806257.0
0.44500 5186691.0
0.45500 3571184.0
0.46500 2491511.0
0.47500 1836046.0
0.48500 1440901.0
0.49500 1201685.0
0.50500 1062721.0
0.51500 939250.0
0.52500 803824.0
0.53500 678966.0
0.54500 577111.0
0.55500 506907.0
0.56500 464883.0
0.57500 433555.0
0.58500 403424.0
0.59500 366177.0
0.60500 325697.0
0.61500 290312.0
0.62500 257952.0
0.63500 234279.0
0.64500 216957.0
0.65500 206327.0
0.66500 197058.0
0.67500 185509.0
0.68500 173479.0
0.69500 159578.0
0.70500 143009.0
0.71500 131443.0
0.72500 120389.0
0.73500 112821.0
0.74500 105988.0
0.75500 102106.0
0.76500 96776.0
0.77500 93102.0
0.78500 88608.0
0.79500 83845.0
0.80500 76765.0
0.81500 70901.0
0.82500 65198.0
0.83500 60510.0
0.84500 57374.0
0.85500 55317.0
0.86500 53355.0
0.87500 51828.0
0.88500 50583.0
0.89500 48777.0
0.90500 45882.0
0.91500 42667.0
0.92500 39319.0
0.93500 36782.0
0.94500 34051.0
0.95500 32849.0
0.96500 31800.0
0.97500 30735.0
0.98500 30572.0
0.99500 30226.0
1.00500 28566.0
1.01500 27365.0
1.02500 25932.0
1.03500 24675.0
1.04500 22746.0
1.05500 21366.0
1.06500 20534.0
1.07500 19550.0
1.08500 19019.0
1.09500 18680.0
1.10500 18499.0
1.11500 17917.0
1.12500 17571.0
1.13500 16680.0
1.14500 15781.0
1.15500 14854.0
1.16500 14113.0
1.17500 13312.0
1.18500 12536.0
1.19500 12468.0
1.20500 11985.0
1.21500 11680.0
1.22500 11523.0
1.23500 11153.0
1.24500 11126.0
1.25500 10700.0
1.26500 10347.0
1.27500 9774.0
1.28500 9034.0
1.29500 8662.0
1.30500 8296.0
1.31500 8089.0
1.32500 7982.0
1.33500 7788.0
1.34500 7560.0
1.35500 7804.0
1.36500 7453.0
1.37500 6947.0
1.38500 6938.0
1.39500 6514.0
1.40500 6072.0
1.41500 5806.0
1.42500 5454.0
1.43500 5470.0
1.44500 5395.0
1.45500 5281.0
1.46500 5425.0
1.47500 5226.0
1.48500 5088.0
1.49500 4903.0
1.50500 4626.0
1.51500 4552.0
1.52500 4250.0
1.53500 3992.0
1.54500 3891.0
1.55500 3846.0
1.56500 3646.0
1.57500 3616.0
1.58500 3578.0
1.59500 3586.0
1.60500 3677.0
1.61500 3531.0
1.62500 3307.0
1.63500 3175.0
1.64500 2965.0
1.65500 2878.0
1.66500 2729.0
1.67500 2673.0
1.68500 2677.0
1.69500 2534.0
1.70500 2633.0
1.71500 2611.0
1.72500 2558.0
1.73500 2459.0
1.74500 2331.0
1.75500 2263.0
1.76500 2224.0
1.77500 2123.0
1.78500 2038.0
1.79500 1923.0
1.80500 2012.0
1.81500 1861.0
1.82500 1753.0
1.83500 1827.0
1.84500 1842.0
1.85500 1766.0
1.86500 1711.0
1.87500 1687.0
1.88500 1627.0
1.89500 1660.0
1.90500 1463.0
1.91500 1457.0
1.92500 1428.0
1.93500 1393.0
1.94500 1343.0
1.95500 1356.0
1.96500 1365.0
1.97500 1331.0
1.98500 1295.0
1.99500 1291.0
2.00500 1262.0
2.01500 1163.0
2.02500 1170.0
2.03500 1120.0
2.04500 1076.0
2.05500 1049.0
2.06500 1061.0
2.07500 1022.0
2.08500 1024.0
2.09500 1013.0
2.10500 987.0
2.11500 985.0
2.12500 935.0
2.13500 927.0
2.14500 877.0
2.15500 844.0
2.16500 799.0
2.17500 798.0
2.18500 732.0
2.19500 714.0
2.20500 755.0
2.21500 741.0
2.22500 764.0
2.23500 715.0
2.24500 711.0
2.25500 716.0
2.26500 703.0
2.27500 615.0
2.28500 609.0
2.29500 631.0
2.30500 610.0
2.31500 567.0
2.32500 590.0
2.33500 537.0
2.34500 527.0
2.35500 528.0
2.36500 512.0
2.37500 548.0
2.38500 508.0
2.39500 537.0
2.40500 472.0
2.41500 456.0
2.42500 440.0
2.43500 426.0
2.44500 429.0
2.45500 405.0
2.46500 394.0
2.47500 431.0
2.48500 416.0
2.49500 410.0
2.50500 432.0
2.51500 431.0
2.52500 452.0
2.53500 356.0
2.54500 390.0
2.55500 345.0
2.56500 332.0
2.57500 350.0
2.58500 325.0
2.59500 333.0
2.60500 319.0
2.61500 278.0
2.62500 323.0
2.63500 289.0
2.64500 297.0
2.65500 340.0
2.66500 319.0
2.67500 305.0
2.68500 281.0
2.69500 281.0
2.70500 277.0
2.71500 303.0
2.72500 285.0
2.73500 309.0
2.74500 296.0
2.75500 258.0
2.76500 260.0
2.77500 258.0
2.78500 290.0
2.79500 251.0
2.80500 230.0
2.81500 260.0
2.82500 242.0
2.83500 218.0
2.84500 231.0
2.85500 248.0
2.86500 216.0
2.87500 234.0
2.88500 216.0
2.89500 218.0
2.90500 203.0
2.91500 225.0
2.92500 217.0
2.93500 204.0
2.94500 177.0
2.95500 181.0
2.96500 193.0
2.97500 182.0
2.98500 203.0
2.99500 202.0
3.00500 178.0
3.01500 193.0
3.02500 223.0
3.03500 194.0
3.04500 164.0
3.05500 173.0
3.06500 138.0
3.07500 129.0
3.08500 153.0
3.09500 164.0
3.10500 153.0
3.11500 181.0
3.12500 174.0
3.13500 135.0
3.14500 164.0
3.15500 150.0
3.16500 149.0
3.17500 114.0
3.18500 129.0
3.19500 138.0
3.20500 154.0
3.21500 172.0
3.22500 181.0
3.23500 183.0
3.24500 162.0
3.25500 188.0
3.26500 193.0
3.27500 199.0
3.28500 176.0
3.29500 136.0
3.30500 161.0
3.31500 149.0
3.32500 116.0
3.33500 116.0
3.34500 134.0
3.35500 123.0
3.36500 101.0
3.37500 111.0
3.38500 98.0
3.39500 124.0
3.40500 114.0
3.41500 129.0
3.42500 132.0
3.43500 115.0
3.44500 121.0
3.45500 120.0
3.46500 107.0
3.47500 82.0
3.48500 104.0
3.49500 115.0
3.50500 89.0
3.51500 80.0
3.52500 101.0
3.53500 111.0
3.54500 113.0
3.55500 94.0
3.56500 106.0
3.57500 81.0
3.58500 99.0
3.59500 78.0
3.60500 104.0
3.61500 71.0
3.62500 102.0
3.63500 103.0
3.64500 96.0
3.65500 107.0
3.66500 90.0
3.67500 86.0
3.68500 69.0
3.69500 72.0
3.70500 64.0
3.71500 67.0
3.72500 94.0
3.73500 88.0
3.74500 85.0
3.75500 72.0
3.76500 64.0
3.77500 84.0
3.78500 76.0
3.79500 78.0
3.80500 89.0
3.81500 71.0
3.82500 92.0
3.83500 94.0
3.84500 67.0
3.85500 62.0
3.86500 49.0
3.87500 88.0
3.88500 65.0
3.89500 73.0
3.90500 76.0
3.91500 73.0
3.92500 66.0
3.93500 104.0
3.94500 98.0
3.95500 94.0
3.96500 82.0
3.97500 61.0
3.98500 51.0
3.99500 64.0
4.00500 55.0
4.01500 78.0
4.02500 78.0
4.03500 67.0
4.04500 68.0
4.05500 80.0
4.06500 67.0
4.07500 70.0
4.08500 69.0
4.09500 70.0
4.10500 115.0
4.11500 94.0
4.12500 99.0
4.13500 104.0
4.14500 82.0
4.15500 116.0
4.16500 118.0
4.17500 84.0
4.18500 118.0
4.19500 69.0
4.20500 91.0
4.21500 119.0
4.22500 100.0
4.23500 89.0
4.24500 105.0
4.25500 75.0
4.26500 69.0
4.27500 71.0
4.28500 108.0
4.29500 87.0
4.30500 91.0
4.31500 91.0
4.32500 71.0
4.33500 50.0
4.34500 59.0
4.35500 69.0
4.36500 76.0
4.37500 80.0
4.38500 62.0
4.39500 63.0
4.40500 58.0
4.41500 73.0
4.42500 75.0
4.43500 58.0
4.44500 80.0
4.45500 77.0
4.46500 72.0
4.47500 67.0
4.48500 69.0
4.49500 71.0
4.50500 60.0
4.51500 48.0
4.52500 42.0
4.53500 48.0
4.54500 69.0
4.55500 55.0
4.56500 56.0
4.57500 60.0
4.58500 60.0
4.59500 55.0
4.60500 58.0
4.61500 75.0
4.62500 60.0
4.63500 66.0
4.64500 76.0
4.65500 70.0
4.66500 75.0
4.67500 73.0
4.68500 81.0
4.69500 81.0
4.70500 97.0
4.71500 90.0
4.72500 80.0
4.73500 84.0
4.74500 99.0
4.75500 92.0
4.76500 108.0
4.77500 73.0
4.78500 62.0
4.79500 82.0
4.80500 82.0
4.81500 83.0
4.82500 65.0
4.83500 71.0
4.84500 75.0
4.85500 73.0
4.86500 58.0
4.87500 65.0
4.88500 73.0
4.89500 65.0
4.90500 92.0
4.91500 75.0
4.92500 64.0
4.93500 83.0
4.94500 86.0
4.95500 70.0
4.96500 58.0
4.97500 49.0
4.98500 66.0
4.99500 78.0
5.00500 52.0
5.01500 63.0
5.02500 68.0
5.03500 43.0
5.04500 51.0
5.05500 49.0
5.06500 61.0
5.07500 44.0
5.08500 38.0
5.09500 41.0
5.10500 38.0
5.11500 36.0
5.12500 57.0
5.13500 63.0
5.14500 61.0
5.15500 56.0
5.16500 66.0
5.17500 50.0
5.18500 41.0
5.19500 44.0
5.20500 46.0
5.21500 54.0
5.22500 42.0
5.23500 37.0
5.24500 26.0
5.25500 26.0
5.26500 37.0
5.27500 34.0
5.28500 36.0
5.29500 81.0
5.30500 51.0
5.31500 41.0
5.32500 56.0
5.33500 39.0
5.34500 29.0
5.35500 36.0
5.36500 57.0
5.37500 53.0
5.38500 48.0
5.39500 55.0
5.40500 52.0
5.41500 60.0
5.42500 49.0
5.43500 60.0
5.44500 73.0
5.45500 48.0
5.46500 57.0
5.47500 55.0
5.48500 56.0
5.49500 57.0
5.50500 66.0
5.51500 43.0
5.52500 59.0
5.53500 80.0
5.54500 60.0
5.55500 54.0
5.56500 64.0
5.57500 57.0
5.58500 48.0
5.59500 77.0
5.60500 65.0
5.61500 45.0
5.62500 62.0
5.63500 62.0
5.64500 69.0
5.65500 45.0
5.66500 43.0
5.67500 40.0
5.68500 46.0
5.69500 35.0
5.70500 49.0
5.71500 46.0
5.72500 68.0
5.73500 72.0
5.74500 40.0
5.75500 39.0
5.76500 34.0
5.77500 31.0
5.78500 41.0
5.79500 30.0
5.80500 34.0
5.81500 46.0
5.82500 43.0
5.83500 48.0
5.84500 62.0
5.85500 59.0
5.86500 52.0
5.87500 52.0
5.88500 45.0
5.89500 45.0
5.90500 58.0
5.91500 40.0
5.92500 48.0
5.93500 57.0
5.94500 72.0
5.95500 69.0
5.96500 69.0
5.97500 72.0
5.98500 47.0
5.99500 66.0
