0.00500 31338520.0
0.01500 34575388.0
0.02500 30163522.0
0.03500 23536080.0
0.04500 16110192.0
0.05500 9524390.0
0.06500 5926132.0
0.07500 5113757.0
0.08500 5484338.0
0.09500 6112050.0
0.10500 6774801.0
0.11500 7464978.0
0.12500 8155400.0
0.13500 8799594.0
0.14500 9502967.0
0.15500 10145738.0
0.16500 10784067.0
0.17500 11367918.0
0.18500 11944543.0
0.19500 12621712.0
0.20500 13213624.0
0.21500 13785732.0
0.22500 14290230.0
0.23500 14922101.0
0.24500 15476286.0
0.25500 16027710.0
0.26500 16616292.0
0.27500 16982952.0
0.28500 17525012.0
0.29500 18023372.0
0.30500 18533900.0
0.31500 18986850.0
0.32500 19432672.0
0.33500 19960402.0
0.34500 20414414.0
0.35500 20914492.0
0.36500 21232540.0
0.37500 21702646.0
0.38500 22218048.0
0.39500 22699880.0
0.40500 23069720.0
0.41500 23466128.0
0.42500 23816934.0
0.43500 24290252.0
0.44500 24669500.0
0.45500 24905824.0
0.46500 25365588.0
0.47500 25706954.0
0.48500 25914568.0
0.49500 26332592.0
0.50500 26682516.0
0.51500 26944782.0
0.52500 27304234.0
0.53500 27579272.0
0.54500 27734600.0
0.55500 28042548.0
0.56500 28295380.0
0.57500 28434564.0
0.58500 28648192.0
0.59500 28900844.0
0.60500 29211624.0
0.61500 29309276.0
0.62500 29433268.0
0.63500 29231828.0
0.64500 29317812.0
0.65500 29362948.0
0.66500 29289056.0
0.67500 29322800.0
0.68500 29296036.0
0.69500 29145284.0
0.70500 28770000.0
0.71500 28343534.0
0.72500 27243442.0
0.73500 25648108.0
0.74500 23284592.0
0.75500 20202272.0
0.76500 16960760.0
0.77500 13957805.0
0.78500 11574549.0
0.79500 9929889.0
0.80500 8647396.0
0.81500 7539570.0
0.82500 6686183.0
0.83500 5937714.0
0.84500 5361416.0
0.85500 4836821.0
0.86500 4410013.0
0.87500 4006466.0
0.88500 3647546.0
0.89500 3371306.0
0.90500 3106630.0
0.91500 2869373.0
0.92500 2650574.0
0.93500 2454467.0
0.94500 2271179.0
0.95500 2111000.0
0.96500 1974782.0
0.97500 1832222.0
0.98500 1729346.0
0.99500 1599164.0
1.00500 1506044.0
1.01500 1411745.0
1.02500 1323504.0
1.03500 1260773.0
1.04500 1192000.0
1.05500 1121001.0
1.06500 1071925.0
1.07500 1006932.0
1.08500 951149.0
1.09500 905730.0
1.10500 851945.0
1.11500 812606.0
1.12500 773110.0
1.13500 731097.0
1.14500 702646.0
1.15500 670796.0
1.16500 630895.0
1.17500 607512.0
1.18500 581346.0
1.19500 548762.0
1.20500 529552.0
1.21500 510674.0
1.22500 473899.0
1.23500 460929.0
1.24500 448255.0
1.25500 415176.0
1.26500 400393.0
1.27500 395474.0
1.28500 367220.0
1.29500 352601.0
1.30500 352357.0
1.31500 329432.0
1.32500 307523.0
1.33500 308135.0
1.34500 298414.0
1.35500 272751.0
1.36500 269879.0
1.37500 266075.0
1.38500 243473.0
1.39500 236226.0
1.40500 240520.0
1.41500 222791.0
1.42500 207525.0
1.43500 209055.0
1.44500 207012.0
1.45500 187029.0
1.46500 182667.0
1.47500 187688.0
1.48500 171769.0
1.49500 161918.0
1.50500 168234.0
1.51500 162591.0
1.52500 146022.0
1.53500 145729.0
1.54500 150117.0
1.55500 135901.0
1.56500 126880.0
1.57500 134753.0
1.58500 130857.0
1.59500 116990.0
1.60500 119327.0
1.61500 122796.0
1.62500 111798.0
1.63500 103656.0
1.64500 110397.0
1.65500 109203.0
1.66500 95488.0
1.67500 95150.0
1.68500 101254.0
1.69500 94319.0
1.70500 86505.0
1.71500 90896.0
1.72500 93146.0
1.73500 81887.0
1.74500 79116.0
1.75500 86512.0
1.76500 81320.0
1.77500 72334.0
1.78500 75880.0
1.79500 80259.0
1.80500 73210.0
1.81500 68070.0
1.82500 74134.0
1.83500 74884.0
1.84500 66283.0
1.85500 66223.0
1.86500 73238.0
1.87500 70691.0
1.88500 62361.0
1.89500 66328.0
1.90500 72578.0
1.91500 66057.0
1.92500 61196.0
1.93500 69697.0
1.94500 72806.0
1.95500 65077.0
1.96500 65432.0
1.97500 74516.0
1.98500 75525.0
1.99500 67936.0
2.00500 75136.0
2.01500 88070.0
2.02500 85853.0
2.03500 82153.0
2.04500 98868.0
2.05500 115493.0
2.06500 116557.0
2.07500 136272.0
2.08500 192183.0
2.09500 242910.0
2.10500 310583.0
2.11500 586036.0
2.12500 1179176.0
2.13500 1917767.0
2.14500 2391843.0
2.15500 2279693.0
2.16500 1709083.0
2.17500 1024985.0
2.18500 553144.0
2.19500 308194.0
2.20500 207203.0
2.21500 150767.0
2.22500 108644.0
2.23500 82244.0
2.24500 64566.0
2.25500 53526.0
2.26500 43101.0
2.27500 35006.0
2.28500 30327.0
2.29500 25990.0
2.30500 22532.0
2.31500 19398.0
2.32500 17187.0
2.33500 15823.0
2.34500 14519.0
2.35500 13067.0
2.36500 12052.0
2.37500 11447.0
2.38500 10842.0
2.39500 9966.0
2.40500 9059.0
2.41500 8922.0
2.42500 8585.0
2.43500 7913.0
2.44500 7735.0
2.45500 7382.0
2.46500 7122.0
2.47500 6852.0
2.48500 6535.0
2.49500 6385.0
2.50500 6268.0
2.51500 5783.0
2.52500 5471.0
2.53500 5351.0
2.54500 5118.0
2.55500 4904.0
2.56500 4616.0
2.57500 4571.0
2.58500 4505.0
2.59500 4151.0
2.60500 4164.0
2.61500 4121.0
2.62500 3868.0
2.63500 3555.0
2.64500 3598.0
2.65500 3782.0
2.66500 3506.0
2.67500 3162.0
2.68500 3142.0
2.69500 3256.0
2.70500 3053.0
2.71500 2846.0
2.72500 2868.0
2.73500 3054.0
2.74500 3130.0
2.75500 2728.0
2.76500 2576.0
2.77500 2857.0
2.78500 2757.0
2.79500 2498.0
2.80500 2611.0
2.81500 2675.0
2.82500 2401.0
2.83500 2209.0
2.84500 2337.0
2.85500 2474.0
2.86500 2233.0
2.87500 2218.0
2.88500 2139.0
2.89500 2112.0
2.90500 2086.0
2.91500 1993.0
2.92500 1888.0
2.93500 1900.0
2.94500 1678.0
2.95500 1749.0
2.96500 1796.0
2.97500 1698.0
2.98500 1676.0
2.99500 1627.0
3.00500 1874.0
3.01500 1947.0
3.02500 1833.0
3.03500 1777.0
3.04500 1810.0
3.05500 1594.0
3.06500 1440.0
3.07500 1511.0
3.08500 1555.0
3.09500 1439.0
3.10500 1278.0
3.11500 1403.0
3.12500 1408.0
3.13500 1316.0
3.14500 1194.0
3.15500 1241.0
3.16500 1278.0
3.17500 1211.0
3.18500 1105.0
3.19500 1221.0
3.20500 1232.0
3.21500 1160.0
3.22500 1206.0
3.23500 1182.0
3.24500 1201.0
3.25500 1187.0
3.26500 1065.0
3.27500 1110.0
3.28500 1090.0
3.29500 1034.0
3.30500 1137.0
3.31500 1137.0
3.32500 1158.0
3.33500 1016.0
3.34500 941.0
3.35500 826.0
3.36500 875.0
3.37500 806.0
3.38500 797.0
3.39500 748.0
3.40500 827.0
3.41500 797.0
3.42500 808.0
3.43500 882.0
3.44500 931.0
3.45500 852.0
3.46500 873.0
3.47500 1002.0
3.48500 865.0
3.49500 864.0
3.50500 853.0
3.51500 724.0
3.52500 588.0
3.53500 618.0
3.54500 653.0
3.55500 591.0
3.56500 590.0
3.57500 572.0
3.58500 604.0
3.59500 584.0
3.60500 544.0
3.61500 549.0
3.62500 557.0
3.63500 578.0
3.64500 673.0
3.65500 726.0
3.66500 665.0
3.67500 778.0
3.68500 688.0
3.69500 576.0
3.70500 602.0
3.71500 619.0
3.72500 676.0
3.73500 634.0
3.74500 640.0
3.75500 716.0
3.76500 656.0
3.77500 558.0
3.78500 529.0
3.79500 621.0
3.80500 603.0
3.81500 665.0
3.82500 643.0
3.83500 692.0
3.84500 691.0
3.85500 642.0
3.86500 670.0
3.87500 658.0
3.88500 592.0
3.89500 594.0
3.90500 743.0
3.91500 775.0
3.92500 964.0
3.93500 833.0
3.94500 763.0
3.95500 885.0
3.96500 789.0
3.97500 904.0
3.98500 934.0
3.99500 1089.0
4.00500 984.0
4.01500 1253.0
4.02500 1512.0
4.03500 1840.0
4.04500 2088.0
4.05500 3205.0
4.06500 6368.0
4.07500 12003.0
4.08500 17784.0
4.09500 21106.0
4.10500 20403.0
4.11500 16869.0
4.12500 12644.0
4.13500 9227.0
4.14500 7125.0
4.15500 5540.0
4.16500 4328.0
4.17500 3454.0
4.18500 2814.0
4.19500 2393.0
4.20500 2036.0
4.21500 1777.0
4.22500 1449.0
4.23500 1313.0
4.24500 1169.0
4.25500 1077.0
4.26500 931.0
4.27500 857.0
4.28500 773.0
4.29500 747.0
4.30500 683.0
4.31500 706.0
4.32500 598.0
4.33500 616.0
4.34500 529.0
4.35500 520.0
4.36500 513.0
4.37500 446.0
4.38500 491.0
4.39500 418.0
4.40500 389.0
4.41500 472.0
4.42500 431.0
4.43500 387.0
4.44500 449.0
4.45500 374.0
4.46500 340.0
4.47500 351.0
4.48500 345.0
4.49500 336.0
4.50500 303.0
4.51500 304.0
4.52500 305.0
4.53500 279.0
4.54500 245.0
4.55500 234.0
4.56500 230.0
4.57500 249.0
4.58500 255.0
4.59500 233.0
4.60500 241.0
4.61500 247.0
4.62500 253.0
4.63500 323.0
4.64500 231.0
4.65500 275.0
4.66500 228.0
4.67500 230.0
4.68500 241.0
4.69500 260.0
4.70500 237.0
4.71500 181.0
4.72500 276.0
4.73500 274.0
4.74500 245.0
4.75500 252.0
4.76500 256.0
4.77500 268.0
4.78500 236.0
4.79500 209.0
4.80500 179.0
4.81500 202.0
4.82500 207.0
4.83500 262.0
4.84500 164.0
4.85500 178.0
4.86500 229.0
4.87500 140.0
4.88500 166.0
4.89500 187.0
4.90500 164.0
4.91500 158.0
4.92500 162.0
4.93500 171.0
4.94500 171.0
4.95500 162.0
4.96500 156.0
4.97500 182.0
4.98500 158.0
4.99500 128.0
5.00500 136.0
5.01500 136.0
5.02500 176.0
5.03500 172.0
5.04500 172.0
5.05500 148.0
5.06500 165.0
5.07500 178.0
5.08500 220.0
5.09500 216.0
5.10500 189.0
5.11500 206.0
5.12500 204.0
5.13500 182.0
5.14500 240.0
5.15500 209.0
5.16500 218.0
5.17500 272.0
5.18500 210.0
5.19500 237.0
5.20500 207.0
5.21500 186.0
5.22500 205.0
5.23500 164.0
5.24500 171.0
5.25500 158.0
5.26500 171.0
5.27500 178.0
5.28500 156.0
5.29500 140.0
5.30500 192.0
5.31500 183.0
5.32500 177.0
5.33500 163.0
5.34500 175.0
5.35500 168.0
5.36500 184.0
5.37500 182.0
5.38500 187.0
5.39500 163.0
5.40500 161.0
5.41500 116.0
5.42500 149.0
5.43500 156.0
5.44500 226.0
5.45500 218.0
5.46500 258.0
5.47500 232.0
5.48500 215.0
5.49500 227.0
5.50500 221.0
5.51500 301.0
5.52500 124.0
5.53500 182.0
5.54500 167.0
5.55500 177.0
5.56500 149.0
5.57500 184.0
5.58500 265.0
5.59500 211.0
5.60500 229.0
5.61500 212.0
5.62500 220.0
5.63500 246.0
5.64500 285.0
5.65500 290.0
5.66500 221.0
5.67500 187.0
5.68500 211.0
5.69500 197.0
5.70500 198.0
5.71500 236.0
5.72500 242.0
5.73500 219.0
5.74500 265.0
5.75500 300.0
5.76500 278.0
5.77500 294.0
5.78500 235.0
5.79500 214.0
5.80500 190.0
5.81500 163.0
5.82500 206.0
5.83500 242.0
5.84500 264.0
5.85500 254.0
5.86500 256.0
5.87500 215.0
5.88500 211.0
5.89500 232.0
5.90500 214.0
5.91500 229.0
5.92500 257.0
5.93500 246.0
5.94500 326.0
5.95500 267.0
5.96500 284.0
5.97500 270.0
5.98500 222.0
5.99500 204.0
6.00500 209.0
6.01500 220.0
6.02500 223.0
6.03500 210.0
6.04500 278.0
6.05500 503.0
6.06500 800.0
6.07500 1053.0
6.08500 1150.0
6.09500 1243.0
6.10500 1015.0
6.11500 862.0
6.12500 646.0
6.13500 515.0
6.14500 445.0
6.15500 403.0
6.16500 322.0
6.17500 296.0
6.18500 249.0
6.19500 251.0
6.20500 214.0
6.21500 205.0
6.22500 199.0
6.23500 176.0
6.24500 253.0
6.25500 327.0
6.26500 253.0
6.27500 230.0
6.28500 250.0
6.29500 224.0
6.30500 164.0
6.31500 176.0
6.32500 160.0
6.33500 198.0
6.34500 179.0
6.35500 191.0
6.36500 235.0
6.37500 249.0
6.38500 213.0
6.39500 262.0
6.40500 273.0
6.41500 309.0
6.42500 226.0
6.43500 185.0
6.44500 203.0
6.45500 176.0
6.46500 195.0
6.47500 130.0
6.48500 116.0
6.49500 162.0
6.50500 298.0
6.51500 228.0
6.52500 233.0
6.53500 179.0
6.54500 219.0
6.55500 214.0
6.56500 255.0
6.57500 251.0
6.58500 250.0
6.59500 156.0
6.60500 143.0
6.61500 155.0
6.62500 146.0
6.63500 210.0
6.64500 260.0
6.65500 315.0
6.66500 221.0
6.67500 179.0
6.68500 198.0
6.69500 174.0
6.70500 175.0
6.71500 189.0
6.72500 205.0
6.73500 224.0
6.74500 225.0
6.75500 223.0
6.76500 261.0
6.77500 298.0
6.78500 237.0
6.79500 110.0
6.80500 190.0
6.81500 179.0
6.82500 141.0
6.83500 132.0
6.84500 150.0
6.85500 138.0
6.86500 139.0
6.87500 140.0
6.88500 151.0
6.89500 150.0
6.90500 143.0
6.91500 188.0
6.92500 121.0
6.93500 146.0
6.94500 140.0
6.95500 138.0
6.96500 134.0
6.97500 107.0
6.98500 121.0
6.99500 119.0
7.00500 140.0
7.01500 182.0
7.02500 217.0
7.03500 196.0
7.04500 145.0
7.05500 178.0
7.06500 171.0
7.07500 104.0
7.08500 134.0
7.09500 136.0
7.10500 121.0
7.11500 162.0
7.12500 162.0
7.13500 159.0
7.14500 166.0
7.15500 172.0
7.16500 180.0
7.17500 183.0
7.18500 175.0
7.19500 218.0
7.20500 237.0
7.21500 194.0
7.22500 203.0
7.23500 176.0
7.24500 195.0
7.25500 253.0
7.26500 248.0
7.27500 315.0
7.28500 355.0
7.29500 359.0
7.30500 257.0
7.31500 227.0
7.32500 254.0
7.33500 231.0
7.34500 289.0
7.35500 305.0
7.36500 285.0
7.37500 259.0
7.38500 322.0
7.39500 271.0
7.40500 244.0
7.41500 225.0
7.42500 391.0
7.43500 288.0
7.44500 279.0
7.45500 299.0
7.46500 246.0
7.47500 225.0
7.48500 284.0
7.49500 346.0
7.50500 462.0
7.51500 398.0
7.52500 334.0
7.53500 187.0
7.54500 225.0
7.55500 233.0
7.56500 243.0
7.57500 232.0
7.58500 274.0
7.59500 280.0
7.60500 245.0
7.61500 322.0
7.62500 259.0
7.63500 233.0
7.64500 273.0
7.65500 283.0
7.66500 219.0
7.67500 221.0
7.68500 232.0
7.69500 180.0
7.70500 199.0
7.71500 267.0
7.72500 223.0
7.73500 240.0
7.74500 224.0
7.75500 223.0
7.76500 204.0
7.77500 239.0
7.78500 212.0
7.79500 215.0
7.80500 191.0
7.81500 188.0
7.82500 131.0
7.83500 156.0
7.84500 152.0
7.85500 175.0
7.86500 161.0
7.87500 137.0
7.88500 168.0
7.89500 147.0
7.90500 299.0
7.91500 224.0
7.92500 222.0
7.93500 278.0
7.94500 288.0
7.95500 312.0
7.96500 322.0
7.97500 170.0
7.98500 133.0
7.99500 172.0
8.00500 183.0
8.01500 155.0
8.02500 206.0
8.03500 183.0
8.04500 127.0
8.05500 153.0
8.06500 142.0
8.07500 149.0
8.08500 160.0
8.09500 152.0
8.10500 153.0
8.11500 116.0
8.12500 105.0
8.13500 130.0
8.14500 147.0
8.15500 118.0
8.16500 126.0
8.17500 163.0
8.18500 167.0
8.19500 128.0
8.20500 128.0
8.21500 134.0
8.22500 152.0
8.23500 150.0
8.24500 173.0
8.25500 156.0
8.26500 164.0
8.27500 183.0
8.28500 215.0
8.29500 220.0
8.30500 259.0
8.31500 173.0
8.32500 162.0
8.33500 102.0
8.34500 112.0
8.35500 121.0
8.36500 102.0
8.37500 112.0
8.38500 109.0
8.39500 164.0
8.40500 211.0
8.41500 214.0
8.42500 315.0
8.43500 404.0
8.44500 380.0
8.45500 332.0
8.46500 288.0
8.47500 424.0
8.48500 337.0
8.49500 410.0
8.50500 501.0
8.51500 539.0
8.52500 473.0
8.53500 270.0
8.54500 264.0
8.55500 201.0
8.56500 243.0
8.57500 207.0
8.58500 187.0
8.59500 203.0
8.60500 257.0
8.61500 342.0
8.62500 269.0
8.63500 275.0
8.64500 282.0
8.65500 284.0
8.66500 278.0
8.67500 185.0
8.68500 210.0
8.69500 277.0
8.70500 242.0
8.71500 231.0
8.72500 258.0
8.73500 238.0
8.74500 321.0
8.75500 313.0
8.76500 295.0
8.77500 314.0
8.78500 381.0
8.79500 324.0
8.80500 312.0
8.81500 305.0
8.82500 349.0
8.83500 362.0
8.84500 371.0
8.85500 347.0
8.86500 349.0
8.87500 339.0
8.88500 351.0
8.89500 353.0
8.90500 362.0
8.91500 342.0
8.92500 320.0
8.93500 268.0
8.94500 236.0
8.95500 213.0
8.96500 322.0
8.97500 369.0
8.98500 237.0
8.99500 253.0
9.00500 227.0
9.01500 363.0
9.02500 383.0
9.03500 417.0
9.04500 327.0
9.05500 311.0
9.06500 379.0
9.07500 350.0
9.08500 276.0
9.09500 248.0
9.10500 235.0
9.11500 238.0
9.12500 248.0
9.13500 316.0
9.14500 366.0
9.15500 314.0
9.16500 295.0
9.17500 236.0
9.18500 241.0
9.19500 273.0
9.20500 319.0
9.21500 242.0
9.22500 280.0
9.23500 278.0
9.24500 184.0
9.25500 257.0
9.26500 149.0
9.27500 164.0
9.28500 238.0
9.29500 232.0
9.30500 282.0
9.31500 362.0
9.32500 312.0
9.33500 310.0
9.34500 383.0
9.35500 316.0
9.36500 271.0
9.37500 250.0
9.38500 258.0
9.39500 237.0
9.40500 308.0
9.41500 360.0
9.42500 396.0
9.43500 399.0
9.44500 232.0
9.45500 261.0
9.46500 175.0
9.47500 183.0
9.48500 167.0
9.49500 222.0
9.50500 254.0
9.51500 237.0
9.52500 297.0
9.53500 312.0
9.54500 212.0
9.55500 243.0
9.56500 256.0
9.57500 326.0
9.58500 276.0
9.59500 292.0
9.60500 307.0
9.61500 314.0
9.62500 283.0
9.63500 250.0
9.64500 308.0
9.65500 347.0
9.66500 356.0
9.67500 325.0
9.68500 383.0
9.69500 271.0
9.70500 353.0
9.71500 438.0
9.72500 505.0
9.73500 556.0
9.74500 639.0
9.75500 638.0
9.76500 585.0
9.77500 546.0
9.78500 520.0
9.79500 458.0
9.80500 521.0
9.81500 587.0
9.82500 503.0
9.83500 581.0
9.84500 541.0
9.85500 549.0
9.86500 555.0
9.87500 522.0
9.88500 275.0
9.89500 400.0
9.90500 429.0
9.91500 436.0
9.92500 269.0
9.93500 202.0
9.94500 266.0
9.95500 330.0
9.96500 442.0
9.97500 351.0
9.98500 310.0
9.99500 244.0
