0.00990 61.0
0.01490 58.0
0.01990 70.0
0.02490 58.0
0.02990 66.0
0.03490 75.0
0.03990 79.0
0.04490 77.0
0.04990 72.0
0.05490 82.0
0.05990 60.0
0.06490 72.0
0.06990 58.0
0.07490 46.0
0.07990 46.0
0.08490 54.0
0.08990 51.0
0.09490 76.0
0.09990 69.0
0.10490 59.0
0.10990 61.0
0.11490 83.0
0.11990 71.0
0.12490 65.0
0.12990 58.0
0.13490 80.0
0.13990 76.0
0.14490 87.0
0.14990 67.0
0.15490 108.0
0.15990 131.0
0.16490 110.0
0.16990 131.0
0.17490 102.0
0.17990 116.0
0.18490 152.0
0.18990 106.0
0.19490 98.0
0.19990 112.0
0.20490 104.0
0.20990 98.0
0.21490 132.0
0.21990 122.0
0.22490 140.0
0.22990 120.0
0.23490 162.0
0.23990 151.0
0.24490 141.0
0.24990 135.0
0.25490 145.0
0.25990 168.0
0.26490 120.0
0.26990 144.0
0.27490 126.0
0.27990 147.0
0.28490 162.0
0.28990 196.0
0.29490 162.0
0.29990 173.0
0.30490 174.0
0.30990 175.0
0.31490 200.0
0.31990 219.0
0.32490 200.0
0.32990 198.0
0.33490 199.0
0.33990 168.0
0.34490 209.0
0.34990 233.0
0.35490 189.0
0.35990 195.0
0.36490 202.0
0.36990 210.0
0.37490 227.0
0.37990 258.0
0.38490 297.0
0.38990 252.0
0.39490 292.0
0.39990 326.0
0.40490 302.0
0.40990 301.0
0.41490 317.0
0.41990 326.0
0.42490 346.0
0.42990 364.0
0.43490 381.0
0.43990 363.0
0.44490 416.0
0.44990 416.0
0.45490 425.0
0.45990 454.0
0.46490 457.0
0.46990 450.0
0.47490 488.0
0.47990 483.0
0.48490 483.0
0.48990 555.0
0.49490 564.0
0.49990 568.0
0.50490 581.0
0.50990 641.0
0.51490 663.0
0.51990 729.0
0.52490 794.0
0.52990 801.0
0.53490 868.0
0.53990 921.0
0.54490 1085.0
0.54990 1090.0
0.55490 1179.0
0.55990 1236.0
0.56490 1304.0
0.56990 1460.0
0.57490 1575.0
0.57990 1700.0
0.58490 1818.0
0.58990 1925.0
0.59490 1973.0
0.59990 2178.0
0.60490 2310.0
0.60990 2412.0
0.61490 2597.0
0.61990 2661.0
0.62490 2719.0
0.62990 2909.0
0.63490 3166.0
0.63990 3312.0
0.64490 3413.0
0.64990 3563.0
0.65490 3648.0
0.65990 3790.0
0.66490 3939.0
0.66990 4013.0
0.67490 4286.0
0.67990 4377.0
0.68490 4672.0
0.68990 4811.0
0.69490 4738.0
0.69990 5083.0
0.70490 5150.0
0.70990 5417.0
0.71490 5672.0
0.71990 5613.0
0.72490 5689.0
0.72990 5959.0
0.73490 5959.0
0.73990 6161.0
0.74490 6430.0
0.74990 6524.0
0.75490 6474.0
0.75990 6647.0
0.76490 6922.0
0.76990 7047.0
0.77490 7324.0
0.77990 7223.0
0.78490 7475.0
0.78990 7605.0
0.79490 7635.0
0.79990 7988.0
0.80490 8016.0
0.80990 8253.0
0.81490 8342.0
0.81990 8656.0
0.82490 8761.0
0.82990 9147.0
0.83490 9094.0
0.83990 9337.0
0.84490 9475.0
0.84990 9514.0
0.85490 10004.0
0.85990 10309.0
0.86490 10254.0
0.86990 10835.0
0.87490 10992.0
0.87990 11439.0
0.88490 11781.0
0.88990 12093.0
0.89490 12405.0
0.89990 12974.0
0.90490 13175.0
0.90990 13791.0
0.91490 14336.0
0.91990 15163.0
0.92490 15463.0
0.92990 16294.0
0.93490 17225.0
0.93990 18481.0
0.94490 19448.0
0.94990 20889.0
0.95490 22976.0
0.95990 24539.0
0.96490 27489.0
0.96990 31077.0
0.97490 36298.0
0.97990 48479.0
0.98490 107486.0
0.98990 456529.0
0.99490 1724271.0
0.99990 3835249.0
1.00490 6352527.0
1.00990 8575169.0
1.01490 10152041.0
1.01990 10710418.0
1.02490 9834989.0
1.02990 7250329.0
1.03490 4044446.0
1.03990 1542659.0
1.04490 311837.0
1.04990 68576.0
1.05490 39146.0
1.05990 32805.0
1.06490 29000.0
1.06990 25389.0
1.07490 23395.0
1.07990 21272.0
1.08490 19331.0
1.08990 18147.0
1.09490 16930.0
1.09990 15964.0
1.10490 15254.0
1.10990 14331.0
1.11490 13621.0
1.11990 13132.0
1.12490 12507.0
1.12990 12075.0
1.13490 11533.0
1.13990 11239.0
1.14490 10612.0
1.14990 10400.0
1.15490 9862.0
1.15990 9486.0
1.16490 9141.0
1.16990 9119.0
1.17490 8634.0
1.17990 8482.0
1.18490 8293.0
1.18990 8059.0
1.19490 7867.0
1.19990 7608.0
1.20490 7412.0
1.20990 7187.0
1.21490 6931.0
1.21990 6929.0
1.22490 6859.0
1.22990 6543.0
1.23490 6535.0
1.23990 6336.0
1.24490 6195.0
1.24990 5765.0
1.25490 5734.0
1.25990 5432.0
1.26490 5310.0
1.26990 4968.0
1.27490 5098.0
1.27990 4974.0
1.28490 4847.0
1.28990 4646.0
1.29490 4333.0
1.29990 4414.0
1.30490 4273.0
1.30990 4228.0
1.31490 3998.0
1.31990 3841.0
1.32490 3594.0
1.32990 3506.0
1.33490 3328.0
1.33990 3240.0
1.34490 3047.0
1.34990 3018.0
1.35490 3054.0
1.35990 2763.0
1.36490 2656.0
1.36990 2568.0
1.37490 2503.0
1.37990 2350.0
1.38490 2283.0
1.38990 2132.0
1.39490 1984.0
1.39990 1826.0
1.40490 1801.0
1.40990 1621.0
1.41490 1447.0
1.41990 1545.0
1.42490 1376.0
1.42990 1323.0
1.43490 1244.0
1.43990 1100.0
1.44490 998.0
1.44990 935.0
1.45490 856.0
1.45990 755.0
1.46490 754.0
1.46990 713.0
1.47490 735.0
1.47990 575.0
1.48490 594.0
1.48990 548.0
1.49490 496.0
1.49990 500.0
1.50490 482.0
1.50990 397.0
1.51490 424.0
1.51990 394.0
1.52490 376.0
1.52990 377.0
1.53490 321.0
1.53990 346.0
1.54490 302.0
1.54990 285.0
1.55490 295.0
1.55990 265.0
1.56490 265.0
1.56990 289.0
1.57490 255.0
1.57990 233.0
1.58490 193.0
1.58990 226.0
1.59490 204.0
1.59990 210.0
1.60490 191.0
1.60990 196.0
1.61490 188.0
1.61990 184.0
1.62490 188.0
1.62990 191.0
1.63490 189.0
1.63990 189.0
1.64490 198.0
1.64990 165.0
1.65490 128.0
1.65990 153.0
1.66490 159.0
1.66990 181.0
1.67490 178.0
1.67990 205.0
1.68490 205.0
1.68990 180.0
1.69490 159.0
1.69990 167.0
1.70490 152.0
1.70990 137.0
1.71490 145.0
1.71990 156.0
1.72490 151.0
1.72990 128.0
1.73490 147.0
1.73990 121.0
1.74490 132.0
1.74990 106.0
1.75490 98.0
1.75990 87.0
1.76490 103.0
1.76990 96.0
1.77490 106.0
1.77990 99.0
1.78490 102.0
1.78990 73.0
1.79490 99.0
1.79990 85.0
1.80490 113.0
1.80990 106.0
1.81490 129.0
1.81990 95.0
1.82490 102.0
1.82990 106.0
1.83490 126.0
1.83990 79.0
1.84490 78.0
1.84990 81.0
1.85490 67.0
1.85990 74.0
1.86490 74.0
1.86990 78.0
1.87490 92.0
1.87990 70.0
1.88490 70.0
1.88990 74.0
1.89490 81.0
1.89990 81.0
1.90490 68.0
1.90990 69.0
1.91490 51.0
1.91990 71.0
1.92490 66.0
1.92990 84.0
1.93490 88.0
1.93990 91.0
1.94490 66.0
1.94990 83.0
1.95490 77.0
1.95990 70.0
1.96490 64.0
1.96990 71.0
1.97490 75.0
1.97990 78.0
1.98490 75.0
1.98990 72.0
1.99490 66.0
1.99990 52.0
2.00490 61.0
2.00990 64.0
