0.00500 35948756.0
0.01500 40181536.0
0.02500 31399884.0
0.03500 19102420.0
0.04500 9765020.0
0.05500 4713420.0
0.06500 2633960.0
0.07500 2338684.0
0.08500 2537810.0
0.09500 2765429.0
0.10500 3119349.0
0.11500 3377652.0
0.12500 3706390.0
0.13500 4069716.0
0.14500 4313539.0
0.15500 4715375.0
0.16500 4953212.0
0.17500 5297767.0
0.18500 5711499.0
0.19500 5904462.0
0.20500 6340110.0
0.21500 6633561.0
0.22500 6885469.0
0.23500 7364260.0
0.24500 7532033.0
0.25500 7919633.0
0.26500 8212408.0
0.27500 8433103.0
0.28500 8948530.0
0.29500 9186111.0
0.30500 9577650.0
0.31500 9960675.0
0.32500 10097783.0
0.33500 10623445.0
0.34500 10754113.0
0.35500 11067973.0
0.36500 11508498.0
0.37500 11528945.0
0.38500 12044188.0
0.39500 12235690.0
0.40500 12393765.0
0.41500 12920441.0
0.42500 12949935.0
0.43500 13349064.0
0.44500 13648705.0
0.45500 13747689.0
0.46500 14194540.0
0.47500 14190045.0
0.48500 14522217.0
0.49500 14846094.0
0.50500 14818835.0
0.51500 15272192.0
0.52500 15262846.0
0.53500 15463481.0
0.54500 15604375.0
0.55500 15516732.0
0.56500 15925200.0
0.57500 15959012.0
0.58500 16034077.0
0.59500 16271743.0
0.60500 15993616.0
0.61500 16160692.0
0.62500 16133184.0
0.63500 15730021.0
0.64500 15823053.0
0.65500 15515970.0
0.66500 15325817.0
0.67500 15071178.0
0.68500 14352417.0
0.69500 13987829.0
0.70500 13240608.0
0.71500 12420178.0
0.72500 11631488.0
0.73500 10576521.0
0.74500 9763144.0
0.75500 8835180.0
0.76500 7971750.0
0.77500 7262992.0
0.78500 6418733.0
0.79500 5835515.0
0.80500 5295982.0
0.81500 4792520.0
0.82500 4441345.0
0.83500 4024309.0
0.84500 3731018.0
0.85500 3483692.0
0.86500 3199867.0
0.87500 2990826.0
0.88500 2763992.0
0.89500 2569556.0
0.90500 2436183.0
0.91500 2249458.0
0.92500 2121734.0
0.93500 1989833.0
0.94500 1854331.0
0.95500 1776719.0
0.96500 1657912.0
0.97500 1564801.0
0.98500 1466915.0
0.99500 1382052.0
1.00500 1319729.0
1.01500 1247493.0
1.02500 1198292.0
1.03500 1126815.0
1.04500 1065182.0
1.05500 1018521.0
1.06500 967163.0
1.07500 920736.0
1.08500 881603.0
1.09500 831586.0
1.10500 799547.0
1.11500 761293.0
1.12500 738139.0
1.13500 699017.0
1.14500 660805.0
1.15500 634041.0
1.16500 608892.0
1.17500 578158.0
1.18500 556115.0
1.19500 534660.0
1.20500 515413.0
1.21500 495529.0
1.22500 473839.0
1.23500 456351.0
1.24500 438715.0
1.25500 420967.0
1.26500 407997.0
1.27500 387476.0
1.28500 375363.0
1.29500 361080.0
1.30500 347665.0
1.31500 337421.0
1.32500 325306.0
1.33500 315665.0
1.34500 305811.0
1.35500 291564.0
1.36500 284701.0
1.37500 273572.0
1.38500 264855.0
1.39500 257416.0
1.40500 247610.0
1.41500 240200.0
1.42500 231540.0
1.43500 223418.0
1.44500 218112.0
1.45500 211694.0
1.46500 206627.0
1.47500 198585.0
1.48500 193221.0
1.49500 188754.0
1.50500 183381.0
1.51500 178920.0
1.52500 172714.0
1.53500 168357.0
1.54500 163642.0
1.55500 159714.0
1.56500 156778.0
1.57500 153826.0
1.58500 150563.0
1.59500 147642.0
1.60500 143470.0
1.61500 140783.0
1.62500 138038.0
1.63500 136421.0
1.64500 133150.0
1.65500 130220.0
1.66500 128614.0
1.67500 128028.0
1.68500 125827.0
1.69500 125288.0
1.70500 124275.0
1.71500 122972.0
1.72500 122756.0
1.73500 122569.0
1.74500 123305.0
1.75500 132118.0
1.76500 122281.0
1.77500 123726.0
1.78500 125282.0
1.79500 126478.0
1.80500 130190.0
1.81500 132603.0
1.82500 137078.0
1.83500 141306.0
1.84500 149826.0
1.85500 155848.0
1.86500 163514.0
1.87500 176890.0
1.88500 191241.0
1.89500 208848.0
1.90500 231687.0
1.91500 261827.0
1.92500 301600.0
1.93500 362987.0
1.94500 456562.0
1.95500 583749.0
1.96500 787074.0
1.97500 1101529.0
1.98500 1479938.0
1.99500 1783705.0
2.00500 1856425.0
2.01500 1624500.0
2.02500 1224956.0
2.03500 844722.0
2.04500 562228.0
2.05500 395190.0
2.06500 287471.0
2.07500 210876.0
2.08500 166098.0
2.09500 130689.0
2.10500 104132.0
2.11500 85068.0
2.12500 69701.0
2.13500 60010.0
2.14500 50354.0
2.15500 42260.0
2.16500 36286.0
2.17500 31387.0
2.18500 27524.0
2.19500 23816.0
2.20500 20719.0
2.21500 18571.0
2.22500 16274.0
2.23500 14806.0
2.24500 13557.0
2.25500 11851.0
2.26500 11371.0
2.27500 9987.0
2.28500 9530.0
2.29500 8918.0
2.30500 8110.0
2.31500 7769.0
2.32500 7586.0
2.33500 6995.0
2.34500 6755.0
2.35500 6272.0
2.36500 5963.0
2.37500 5711.0
2.38500 5528.0
2.39500 5463.0
2.40500 5017.0
2.41500 4798.0
2.42500 4650.0
2.43500 4357.0
2.44500 4202.0
2.45500 3966.0
2.46500 3999.0
2.47500 3825.0
2.48500 3687.0
2.49500 3696.0
2.50500 3638.0
2.51500 3435.0
2.52500 3252.0
2.53500 3218.0
2.54500 3068.0
2.55500 2919.0
2.56500 2812.0
2.57500 2900.0
2.58500 2697.0
2.59500 2698.0
2.60500 2580.0
2.61500 2520.0
2.62500 2423.0
2.63500 2269.0
2.64500 2332.0
2.65500 2313.0
2.66500 2224.0
2.67500 2139.0
2.68500 2129.0
2.69500 2193.0
2.70500 2125.0
2.71500 2059.0
2.72500 2073.0
2.73500 2022.0
2.74500 1922.0
2.75500 2071.0
2.76500 1900.0
2.77500 2002.0
2.78500 1931.0
2.79500 1905.0
2.80500 1921.0
2.81500 1807.0
2.82500 1732.0
2.83500 1648.0
2.84500 1655.0
2.85500 1717.0
2.86500 1675.0
2.87500 1503.0
2.88500 1562.0
2.89500 1485.0
2.90500 1451.0
2.91500 1421.0
2.92500 1469.0
2.93500 1467.0
2.94500 1366.0
2.95500 1294.0
2.96500 1340.0
2.97500 1318.0
2.98500 1386.0
2.99500 1321.0
3.00500 1324.0
3.01500 1331.0
3.02500 1317.0
3.03500 1245.0
3.04500 1185.0
3.05500 1177.0
3.06500 1207.0
3.07500 1216.0
3.08500 1184.0
3.09500 1158.0
3.10500 1121.0
3.11500 1135.0
3.12500 1129.0
3.13500 1088.0
3.14500 1107.0
3.15500 1153.0
3.16500 1067.0
3.17500 988.0
3.18500 972.0
3.19500 965.0
3.20500 982.0
3.21500 894.0
3.22500 857.0
3.23500 857.0
3.24500 862.0
3.25500 923.0
3.26500 868.0
3.27500 848.0
3.28500 818.0
3.29500 744.0
3.30500 752.0
3.31500 697.0
3.32500 726.0
3.33500 723.0
3.34500 715.0
3.35500 650.0
3.36500 610.0
3.37500 632.0
3.38500 668.0
3.39500 631.0
3.40500 643.0
3.41500 621.0
3.42500 565.0
3.43500 591.0
3.44500 603.0
3.45500 589.0
3.46500 540.0
3.47500 616.0
3.48500 503.0
3.49500 596.0
3.50500 575.0
3.51500 508.0
3.52500 501.0
3.53500 465.0
3.54500 456.0
3.55500 483.0
3.56500 558.0
3.57500 538.0
3.58500 557.0
3.59500 650.0
3.60500 655.0
3.61500 702.0
3.62500 753.0
3.63500 911.0
3.64500 1020.0
3.65500 1146.0
3.66500 1342.0
3.67500 1705.0
3.68500 2209.0
3.69500 2671.0
3.70500 3516.0
3.71500 4555.0
3.72500 6633.0
3.73500 10017.0
3.74500 15241.0
3.75500 22756.0
3.76500 40207.0
3.77500 74609.0
3.78500 122894.0
3.79500 167295.0
3.80500 184390.0
3.81500 163882.0
3.82500 123234.0
3.83500 90114.0
3.84500 66272.0
3.85500 53451.0
3.86500 43705.0
3.87500 36321.0
3.88500 31178.0
3.89500 27076.0
3.90500 23807.0
3.91500 21004.0
3.92500 18758.0
3.93500 17066.0
3.94500 15511.0
3.95500 14029.0
3.96500 12544.0
3.97500 11729.0
3.98500 10528.0
3.99500 9943.0
4.00500 9360.0
4.01500 8715.0
4.02500 8046.0
4.03500 7439.0
4.04500 7126.0
4.05500 6289.0
4.06500 5894.0
4.07500 5667.0
4.08500 5195.0
4.09500 4854.0
4.10500 4551.0
4.11500 4458.0
4.12500 4198.0
4.13500 3945.0
4.14500 3771.0
4.15500 3487.0
4.16500 3415.0
4.17500 3206.0
4.18500 3066.0
4.19500 2968.0
4.20500 2648.0
4.21500 2653.0
4.22500 2506.0
4.23500 2510.0
4.24500 2291.0
4.25500 2109.0
4.26500 2040.0
4.27500 2089.0
4.28500 1954.0
4.29500 1890.0
4.30500 1869.0
4.31500 1663.0
4.32500 1699.0
4.33500 1681.0
4.34500 1569.0
4.35500 1511.0
4.36500 1548.0
4.37500 1462.0
4.38500 1409.0
4.39500 1391.0
4.40500 1257.0
4.41500 1223.0
4.42500 1316.0
4.43500 1253.0
4.44500 1198.0
4.45500 1228.0
4.46500 1146.0
4.47500 1144.0
4.48500 1075.0
4.49500 1106.0
4.50500 1071.0
4.51500 1047.0
4.52500 1032.0
4.53500 1024.0
4.54500 959.0
4.55500 958.0
4.56500 1031.0
4.57500 967.0
4.58500 894.0
4.59500 882.0
4.60500 858.0
4.61500 813.0
4.62500 812.0
4.63500 833.0
4.64500 739.0
4.65500 690.0
4.66500 687.0
4.67500 674.0
4.68500 666.0
4.69500 689.0
4.70500 656.0
4.71500 561.0
4.72500 638.0
4.73500 602.0
4.74500 597.0
4.75500 614.0
4.76500 564.0
4.77500 528.0
4.78500 614.0
4.79500 630.0
4.80500 571.0
4.81500 542.0
4.82500 630.0
4.83500 556.0
4.84500 528.0
4.85500 551.0
4.86500 569.0
4.87500 520.0
4.88500 493.0
4.89500 426.0
4.90500 404.0
4.91500 464.0
4.92500 404.0
4.93500 449.0
4.94500 412.0
4.95500 399.0
4.96500 379.0
4.97500 392.0
4.98500 346.0
4.99500 341.0
5.00500 329.0
5.01500 367.0
5.02500 310.0
5.03500 326.0
5.04500 297.0
5.05500 365.0
5.06500 381.0
5.07500 333.0
5.08500 309.0
5.09500 304.0
5.10500 388.0
5.11500 359.0
5.12500 306.0
5.13500 307.0
5.14500 341.0
5.15500 395.0
5.16500 333.0
5.17500 334.0
5.18500 401.0
5.19500 375.0
5.20500 331.0
5.21500 356.0
5.22500 320.0
5.23500 309.0
5.24500 286.0
5.25500 274.0
5.26500 229.0
5.27500 273.0
5.28500 260.0
5.29500 231.0
5.30500 283.0
5.31500 236.0
5.32500 226.0
5.33500 244.0
5.34500 238.0
5.35500 171.0
5.36500 189.0
5.37500 167.0
5.38500 190.0
5.39500 216.0
5.40500 226.0
5.41500 206.0
5.42500 196.0
5.43500 172.0
5.44500 186.0
5.45500 259.0
5.46500 262.0
5.47500 272.0
5.48500 286.0
5.49500 333.0
5.50500 247.0
5.51500 247.0
5.52500 229.0
5.53500 239.0
5.54500 272.0
5.55500 285.0
5.56500 291.0
5.57500 388.0
5.58500 438.0
5.59500 633.0
5.60500 1037.0
5.61500 1880.0
5.62500 3056.0
5.63500 4173.0
5.64500 4804.0
5.65500 4572.0
5.66500 3669.0
5.67500 2717.0
5.68500 2143.0
5.69500 1678.0
5.70500 1433.0
5.71500 1321.0
5.72500 1219.0
5.73500 906.0
5.74500 790.0
5.75500 695.0
5.76500 752.0
5.77500 672.0
5.78500 596.0
5.79500 614.0
5.80500 541.0
5.81500 524.0
5.82500 520.0
5.83500 500.0
5.84500 464.0
5.85500 414.0
5.86500 435.0
5.87500 387.0
5.88500 399.0
5.89500 417.0
5.90500 425.0
5.91500 400.0
5.92500 366.0
5.93500 268.0
5.94500 324.0
5.95500 270.0
5.96500 304.0
5.97500 276.0
5.98500 249.0
5.99500 236.0
6.00500 238.0
6.01500 256.0
6.02500 235.0
6.03500 226.0
6.04500 232.0
6.05500 221.0
6.06500 264.0
6.07500 223.0
6.08500 208.0
6.09500 207.0
6.10500 242.0
6.11500 254.0
6.12500 215.0
6.13500 214.0
6.14500 224.0
6.15500 204.0
6.16500 184.0
6.17500 200.0
6.18500 201.0
6.19500 171.0
6.20500 163.0
6.21500 164.0
6.22500 153.0
6.23500 194.0
6.24500 201.0
6.25500 222.0
6.26500 202.0
6.27500 238.0
6.28500 213.0
6.29500 187.0
6.30500 197.0
6.31500 165.0
6.32500 246.0
6.33500 263.0
6.34500 260.0
6.35500 229.0
6.36500 238.0
6.37500 263.0
6.38500 229.0
6.39500 237.0
6.40500 276.0
6.41500 314.0
6.42500 331.0
6.43500 252.0
6.44500 217.0
6.45500 243.0
6.46500 257.0
6.47500 328.0
6.48500 334.0
6.49500 394.0
6.50500 310.0
6.51500 269.0
6.52500 264.0
6.53500 277.0
6.54500 205.0
6.55500 216.0
6.56500 214.0
6.57500 199.0
6.58500 232.0
6.59500 195.0
6.60500 172.0
6.61500 273.0
6.62500 236.0
6.63500 208.0
6.64500 185.0
6.65500 243.0
6.66500 314.0
6.67500 264.0
6.68500 229.0
6.69500 259.0
6.70500 251.0
6.71500 234.0
6.72500 190.0
6.73500 204.0
6.74500 204.0
6.75500 139.0
6.76500 172.0
6.77500 144.0
6.78500 118.0
6.79500 162.0
6.80500 154.0
6.81500 116.0
6.82500 182.0
6.83500 207.0
6.84500 170.0
6.85500 155.0
6.86500 166.0
6.87500 221.0
6.88500 194.0
6.89500 209.0
6.90500 217.0
6.91500 204.0
6.92500 235.0
6.93500 173.0
6.94500 217.0
6.95500 202.0
6.96500 228.0
6.97500 258.0
6.98500 222.0
6.99500 222.0
7.00500 222.0
7.01500 156.0
7.02500 216.0
7.03500 229.0
7.04500 236.0
7.05500 228.0
7.06500 197.0
7.07500 192.0
7.08500 167.0
7.09500 225.0
7.10500 216.0
7.11500 214.0
7.12500 202.0
7.13500 194.0
7.14500 270.0
7.15500 246.0
7.16500 194.0
7.17500 176.0
7.18500 248.0
7.19500 343.0
7.20500 334.0
7.21500 255.0
7.22500 296.0
7.23500 279.0
7.24500 251.0
7.25500 249.0
7.26500 220.0
7.27500 241.0
7.28500 300.0
7.29500 262.0
7.30500 260.0
7.31500 245.0
7.32500 275.0
7.33500 348.0
7.34500 230.0
7.35500 277.0
7.36500 333.0
7.37500 289.0
7.38500 271.0
7.39500 307.0
7.40500 214.0
7.41500 227.0
7.42500 277.0
7.43500 299.0
7.44500 334.0
7.45500 445.0
7.46500 514.0
7.47500 789.0
7.48500 961.0
7.49500 1039.0
7.50500 1009.0
7.51500 878.0
7.52500 638.0
7.53500 574.0
7.54500 418.0
7.55500 387.0
7.56500 355.0
7.57500 346.0
7.58500 332.0
7.59500 351.0
7.60500 355.0
7.61500 405.0
7.62500 371.0
7.63500 305.0
7.64500 304.0
7.65500 297.0
7.66500 250.0
7.67500 279.0
7.68500 250.0
7.69500 210.0
7.70500 249.0
7.71500 322.0
7.72500 239.0
7.73500 254.0
7.74500 273.0
7.75500 241.0
7.76500 276.0
7.77500 196.0
7.78500 208.0
7.79500 185.0
7.80500 215.0
7.81500 183.0
7.82500 196.0
7.83500 202.0
7.84500 158.0
7.85500 174.0
7.86500 188.0
7.87500 165.0
7.88500 204.0
7.89500 205.0
7.90500 206.0
7.91500 169.0
7.92500 132.0
7.93500 154.0
7.94500 153.0
7.95500 173.0
7.96500 156.0
7.97500 130.0
7.98500 152.0
7.99500 147.0
8.00500 153.0
8.01500 215.0
8.02500 232.0
8.03500 215.0
8.04500 173.0
8.05500 179.0
8.06500 201.0
8.07500 181.0
8.08500 155.0
8.09500 142.0
8.10500 129.0
8.11500 142.0
8.12500 149.0
8.13500 152.0
8.14500 131.0
8.15500 125.0
8.16500 141.0
8.17500 163.0
8.18500 154.0
8.19500 206.0
8.20500 157.0
8.21500 161.0
8.22500 142.0
8.23500 149.0
8.24500 107.0
8.25500 139.0
8.26500 135.0
8.27500 179.0
8.28500 144.0
8.29500 185.0
8.30500 175.0
8.31500 145.0
8.32500 141.0
8.33500 165.0
8.34500 141.0
8.35500 104.0
8.36500 104.0
8.37500 113.0
8.38500 140.0
8.39500 105.0
8.40500 117.0
8.41500 119.0
8.42500 139.0
8.43500 167.0
8.44500 185.0
8.45500 198.0
8.46500 172.0
8.47500 200.0
8.48500 199.0
8.49500 210.0
8.50500 193.0
8.51500 127.0
8.52500 155.0
8.53500 123.0
8.54500 136.0
8.55500 157.0
8.56500 163.0
8.57500 155.0
8.58500 178.0
8.59500 187.0
8.60500 166.0
8.61500 129.0
8.62500 134.0
8.63500 152.0
8.64500 135.0
8.65500 175.0
8.66500 176.0
8.67500 146.0
8.68500 141.0
8.69500 194.0
8.70500 121.0
8.71500 143.0
8.72500 130.0
8.73500 125.0
8.74500 115.0
8.75500 151.0
8.76500 105.0
8.77500 108.0
8.78500 119.0
8.79500 135.0
8.80500 110.0
8.81500 119.0
8.82500 135.0
8.83500 138.0
8.84500 115.0
8.85500 122.0
8.86500 125.0
8.87500 106.0
8.88500 107.0
8.89500 93.0
8.90500 100.0
8.91500 149.0
8.92500 131.0
8.93500 150.0
8.94500 84.0
8.95500 110.0
8.96500 121.0
8.97500 119.0
8.98500 103.0
8.99500 109.0
9.00500 132.0
9.01500 93.0
9.02500 107.0
9.03500 126.0
9.04500 123.0
9.05500 112.0
9.06500 98.0
9.07500 121.0
9.08500 94.0
9.09500 101.0
9.10500 98.0
9.11500 95.0
9.12500 94.0
9.13500 109.0
9.14500 113.0
9.15500 121.0
9.16500 97.0
9.17500 123.0
9.18500 90.0
9.19500 97.0
9.20500 93.0
9.21500 96.0
9.22500 104.0
9.23500 77.0
9.24500 86.0
9.25500 103.0
9.26500 102.0
9.27500 139.0
9.28500 158.0
9.29500 151.0
9.30500 118.0
9.31500 182.0
9.32500 223.0
9.33500 315.0
9.34500 373.0
9.35500 399.0
9.36500 471.0
9.37500 383.0
9.38500 347.0
9.39500 249.0
9.40500 258.0
9.41500 188.0
9.42500 189.0
9.43500 189.0
9.44500 181.0
9.45500 163.0
9.46500 146.0
9.47500 160.0
9.48500 159.0
9.49500 157.0
9.50500 125.0
9.51500 133.0
9.52500 122.0
9.53500 144.0
9.54500 138.0
9.55500 135.0
9.56500 107.0
9.57500 87.0
9.58500 100.0
9.59500 109.0
9.60500 101.0
9.61500 106.0
9.62500 127.0
9.63500 100.0
9.64500 110.0
9.65500 110.0
9.66500 131.0
9.67500 105.0
9.68500 114.0
9.69500 117.0
9.70500 90.0
9.71500 88.0
9.72500 88.0
9.73500 91.0
9.74500 93.0
9.75500 89.0
9.76500 91.0
9.77500 59.0
9.78500 101.0
9.79500 156.0
9.80500 180.0
9.81500 212.0
9.82500 246.0
9.83500 196.0
9.84500 208.0
9.85500 171.0
9.86500 140.0
9.87500 163.0
9.88500 119.0
9.89500 110.0
9.90500 101.0
9.91500 94.0
9.92500 114.0
9.93500 103.0
9.94500 159.0
9.95500 142.0
9.96500 203.0
9.97500 149.0
9.98500 174.0
9.99500 142.0
