0.00500 15404789.0
0.01500 16308960.0
0.02500 13703813.0
0.03500 10337497.0
0.04500 6996320.0
0.05500 4171487.0
0.06500 2705591.0
0.07500 2389278.0
0.08500 2589444.0
0.09500 2847684.0
0.10500 3155740.0
0.11500 3445476.0
0.12500 3741333.0
0.13500 4091061.0
0.14500 4357163.0
0.15500 4661863.0
0.16500 4944201.0
0.17500 5202316.0
0.18500 5517554.0
0.19500 5755065.0
0.20500 5975966.0
0.21500 6260398.0
0.22500 6482423.0
0.23500 6838609.0
0.24500 7049298.0
0.25500 7270953.0
0.26500 7578913.0
0.27500 7750847.0
0.28500 8047570.0
0.29500 8303109.0
0.30500 8464545.0
0.31500 8745200.0
0.32500 8890193.0
0.33500 9184869.0
0.34500 9433728.0
0.35500 9565203.0
0.36500 9841033.0
0.37500 9974253.0
0.38500 10175641.0
0.39500 10382386.0
0.40500 10406114.0
0.41500 10500368.0
0.42500 10158194.0
0.43500 9181759.0
0.44500 7275494.0
0.45500 5039835.0
0.46500 3278266.0
0.47500 2297392.0
0.48500 1782142.0
0.49500 1454545.0
0.50500 1236529.0
0.51500 1085039.0
0.52500 965287.0
0.53500 871997.0
0.54500 793122.0
0.55500 719436.0
0.56500 661521.0
0.57500 611343.0
0.58500 561841.0
0.59500 519261.0
0.60500 474022.0
0.61500 434333.0
0.62500 401151.0
0.63500 368891.0
0.64500 335255.0
0.65500 306789.0
0.66500 278088.0
0.67500 254743.0
0.68500 231769.0
0.69500 212454.0
0.70500 193850.0
0.71500 176717.0
0.72500 162404.0
0.73500 147642.0
0.74500 135896.0
0.75500 125301.0
0.76500 116501.0
0.77500 107309.0
0.78500 99759.0
0.79500 92687.0
0.80500 85450.0
0.81500 80336.0
0.82500 76777.0
0.83500 72881.0
0.84500 69546.0
0.85500 66286.0
0.86500 62698.0
0.87500 60164.0
0.88500 57528.0
0.89500 55161.0
0.90500 54234.0
0.91500 52313.0
0.92500 50373.0
0.93500 47962.0
0.94500 46210.0
0.95500 44241.0
0.96500 42985.0
0.97500 41261.0
0.98500 39798.0
0.99500 37501.0
1.00500 36545.0
1.01500 34807.0
1.02500 33160.0
1.03500 31611.0
1.04500 29833.0
1.05500 28739.0
1.06500 27130.0
1.07500 25277.0
1.08500 23619.0
1.09500 22219.0
1.10500 20759.0
1.11500 19990.0
1.12500 18328.0
1.13500 17424.0
1.14500 16312.0
1.15500 15186.0
1.16500 14461.0
1.17500 13520.0
1.18500 12834.0
1.19500 12086.0
1.20500 11736.0
1.21500 11464.0
1.22500 10548.0
1.23500 10342.0
1.24500 9969.0
1.25500 9536.0
1.26500 9460.0
1.27500 8949.0
1.28500 8895.0
1.29500 8870.0
1.30500 8656.0
1.31500 8517.0
1.32500 8376.0
1.33500 8315.0
1.34500 8217.0
1.35500 7861.0
1.36500 7688.0
1.37500 7578.0
1.38500 7432.0
1.39500 7280.0
1.40500 7181.0
1.41500 7262.0
1.42500 6873.0
1.43500 6870.0
1.44500 6501.0
1.45500 6375.0
1.46500 6172.0
1.47500 5868.0
1.48500 5635.0
1.49500 5442.0
1.50500 5369.0
1.51500 4999.0
1.52500 4738.0
1.53500 4522.0
1.54500 4353.0
1.55500 4042.0
1.56500 3802.0
1.57500 3714.0
1.58500 3506.0
1.59500 3366.0
1.60500 3055.0
1.61500 2848.0
1.62500 2776.0
1.63500 2670.0
1.64500 2507.0
1.65500 2451.0
1.66500 2363.0
1.67500 2322.0
1.68500 2202.0
1.69500 2139.0
1.70500 2212.0
1.71500 2087.0
1.72500 2087.0
1.73500 2149.0
1.74500 1924.0
1.75500 2028.0
1.76500 1972.0
1.77500 2057.0
1.78500 1980.0
1.79500 1946.0
1.80500 1943.0
1.81500 1967.0
1.82500 1986.0
1.83500 1919.0
1.84500 1950.0
1.85500 2004.0
1.86500 1937.0
1.87500 1970.0
1.88500 1894.0
1.89500 1813.0
1.90500 1851.0
1.91500 1706.0
1.92500 1667.0
1.93500 1663.0
1.94500 1689.0
1.95500 1548.0
1.96500 1531.0
1.97500 1387.0
1.98500 1401.0
1.99500 1279.0
2.00500 1319.0
2.01500 1146.0
2.02500 1109.0
2.03500 1072.0
2.04500 992.0
2.05500 978.0
2.06500 903.0
2.07500 860.0
2.08500 900.0
2.09500 839.0
2.10500 857.0
2.11500 796.0
2.12500 724.0
2.13500 722.0
2.14500 717.0
2.15500 679.0
2.16500 609.0
2.17500 615.0
2.18500 638.0
2.19500 658.0
2.20500 597.0
2.21500 620.0
2.22500 622.0
2.23500 656.0
2.24500 604.0
2.25500 636.0
2.26500 653.0
2.27500 663.0
2.28500 575.0
2.29500 659.0
2.30500 642.0
2.31500 643.0
2.32500 698.0
2.33500 659.0
2.34500 638.0
2.35500 641.0
2.36500 661.0
2.37500 611.0
2.38500 619.0
2.39500 587.0
2.40500 557.0
2.41500 654.0
2.42500 544.0
2.43500 614.0
2.44500 572.0
2.45500 534.0
2.46500 499.0
2.47500 473.0
2.48500 509.0
2.49500 458.0
2.50500 465.0
2.51500 504.0
2.52500 409.0
2.53500 412.0
2.54500 375.0
2.55500 285.0
2.56500 330.0
2.57500 310.0
2.58500 299.0
2.59500 315.0
2.60500 323.0
2.61500 305.0
2.62500 271.0
2.63500 304.0
2.64500 295.0
2.65500 325.0
2.66500 316.0
2.67500 321.0
2.68500 309.0
2.69500 329.0
2.70500 323.0
2.71500 273.0
2.72500 315.0
2.73500 339.0
2.74500 297.0
2.75500 308.0
2.76500 303.0
2.77500 253.0
2.78500 309.0
2.79500 283.0
2.80500 287.0
2.81500 316.0
2.82500 309.0
2.83500 308.0
2.84500 281.0
2.85500 291.0
2.86500 300.0
2.87500 287.0
2.88500 293.0
2.89500 272.0
2.90500 260.0
2.91500 284.0
2.92500 270.0
2.93500 228.0
2.94500 218.0
2.95500 184.0
2.96500 213.0
2.97500 193.0
2.98500 190.0
2.99500 174.0
3.00500 190.0
3.01500 208.0
3.02500 185.0
3.03500 175.0
3.04500 188.0
3.05500 176.0
3.06500 162.0
3.07500 158.0
3.08500 142.0
3.09500 147.0
3.10500 145.0
3.11500 154.0
3.12500 160.0
3.13500 188.0
3.14500 141.0
3.15500 134.0
3.16500 138.0
3.17500 148.0
3.18500 125.0
3.19500 140.0
3.20500 151.0
3.21500 153.0
3.22500 119.0
3.23500 132.0
3.24500 172.0
3.25500 132.0
3.26500 174.0
3.27500 150.0
3.28500 135.0
3.29500 155.0
3.30500 138.0
3.31500 145.0
3.32500 142.0
3.33500 140.0
3.34500 125.0
3.35500 161.0
3.36500 125.0
3.37500 158.0
3.38500 143.0
3.39500 141.0
3.40500 161.0
3.41500 159.0
3.42500 140.0
3.43500 155.0
3.44500 161.0
3.45500 148.0
3.46500 171.0
3.47500 183.0
3.48500 156.0
3.49500 145.0
3.50500 160.0
3.51500 129.0
3.52500 130.0
3.53500 159.0
3.54500 159.0
3.55500 115.0
3.56500 99.0
3.57500 105.0
3.58500 92.0
3.59500 111.0
3.60500 84.0
3.61500 94.0
3.62500 87.0
3.63500 92.0
3.64500 83.0
3.65500 88.0
3.66500 102.0
3.67500 92.0
3.68500 104.0
3.69500 77.0
3.70500 102.0
3.71500 103.0
3.72500 113.0
3.73500 101.0
3.74500 89.0
3.75500 107.0
