0.00500 36994648.0
0.01500 40551548.0
0.02500 30567840.0
0.03500 17932608.0
0.04500 8940677.0
0.05500 4887331.0
0.06500 4191681.0
0.07500 4504568.0
0.08500 5213801.0
0.09500 5719505.0
0.10500 6330480.0
0.11500 7055498.0
0.12500 7592407.0
0.13500 8379272.0
0.14500 8823744.0
0.15500 9328799.0
0.16500 10088745.0
0.17500 10538324.0
0.18500 11396399.0
0.19500 11929602.0
0.20500 12091556.0
0.21500 12953724.0
0.22500 13447087.0
0.23500 14238332.0
0.24500 14803922.0
0.25500 14919327.0
0.26500 15877138.0
0.27500 16319499.0
0.28500 17016292.0
0.29500 17710628.0
0.30500 17783144.0
0.31500 18680966.0
0.32500 19174096.0
0.33500 19670006.0
0.34500 20497600.0
0.35500 20272352.0
0.36500 21220762.0
0.37500 21727384.0
0.38500 22143900.0
0.39500 23012016.0
0.40500 22653272.0
0.41500 23346910.0
0.42500 24283802.0
0.43500 24536632.0
0.44500 25358778.0
0.45500 25187814.0
0.46500 25715360.0
0.47500 26650144.0
0.48500 26737998.0
0.49500 27472902.0
0.50500 27466260.0
0.51500 27731296.0
0.52500 28767436.0
0.53500 28769694.0
0.54500 29420152.0
0.55500 29664348.0
0.56500 29605610.0
0.57500 30370760.0
0.58500 30366342.0
0.59500 30783778.0
0.60500 30869834.0
0.61500 30567180.0
0.62500 31182928.0
0.63500 30915972.0
0.64500 30712064.0
0.65500 30527170.0
0.66500 29122532.0
0.67500 28385502.0
0.68500 26271074.0
0.69500 23200632.0
0.70500 20008558.0
0.71500 16532644.0
0.72500 14145357.0
0.73500 12176967.0
0.74500 10596635.0
0.75500 9448162.0
0.76500 8328986.0
0.77500 7542815.0
0.78500 6906347.0
0.79500 6226381.0
0.80500 5736118.0
0.81500 5206978.0
0.82500 4836317.0
0.83500 4531446.0
0.84500 4148152.0
0.85500 3901551.0
0.86500 3631482.0
0.87500 3383048.0
0.88500 3188098.0
0.89500 2982531.0
0.90500 2845312.0
0.91500 2691148.0
0.92500 2525979.0
0.93500 2422702.0
0.94500 2280052.0
0.95500 2172078.0
0.96500 2076263.0
0.97500 1959003.0
0.98500 1877212.0
0.99500 1784475.0
1.00500 1701171.0
1.01500 1636347.0
1.02500 1552015.0
1.03500 1505476.0
1.04500 1431604.0
1.05500 1374928.0
1.06500 1321263.0
1.07500 1263251.0
1.08500 1217453.0
1.09500 1158292.0
1.10500 1115149.0
1.11500 1069577.0
1.12500 1021413.0
1.13500 993034.0
1.14500 960514.0
1.15500 924901.0
1.16500 902720.0
1.17500 863359.0
1.18500 834215.0
1.19500 814322.0
1.20500 786494.0
1.21500 776278.0
1.22500 755129.0
1.23500 723776.0
1.24500 703638.0
1.25500 686916.0
1.26500 659120.0
1.27500 625775.0
1.28500 604692.0
1.29500 592649.0
1.30500 567824.0
1.31500 566451.0
1.32500 551936.0
1.33500 524129.0
1.34500 517501.0
1.35500 511663.0
1.36500 493413.0
1.37500 480130.0
1.38500 475638.0
1.39500 461205.0
1.40500 451903.0
1.41500 454201.0
1.42500 442199.0
1.43500 420754.0
1.44500 425466.0
1.45500 421662.0
1.46500 399659.0
1.47500 396900.0
1.48500 397426.0
1.49500 380080.0
1.50500 369755.0
1.51500 375070.0
1.52500 364187.0
1.53500 343537.0
1.54500 346943.0
1.55500 348742.0
1.56500 332824.0
1.57500 329561.0
1.58500 339241.0
1.59500 324306.0
1.60500 320862.0
1.61500 327802.0
1.62500 327562.0
1.63500 311113.0
1.64500 319766.0
1.65500 329222.0
1.66500 314327.0
1.67500 310561.0
1.68500 324567.0
1.69500 317995.0
1.70500 301277.0
1.71500 309127.0
1.72500 320647.0
1.73500 308529.0
1.74500 317636.0
1.75500 346152.0
1.76500 348069.0
1.77500 338862.0
1.78500 365226.0
1.79500 383121.0
1.80500 365899.0
1.81500 369507.0
1.82500 400155.0
1.83500 406680.0
1.84500 408932.0
1.85500 450801.0
1.86500 483364.0
1.87500 493287.0
1.88500 548672.0
1.89500 641422.0
1.90500 690874.0
1.91500 772824.0
1.92500 987850.0
1.93500 1200579.0
1.94500 1453398.0
1.95500 2014983.0
1.96500 2861624.0
1.97500 4039906.0
1.98500 6234229.0
1.99500 10443005.0
2.00500 15432142.0
2.01500 18695908.0
2.02500 18700860.0
2.03500 15096318.0
2.04500 9677586.0
2.05500 5040111.0
2.06500 2779696.0
2.07500 1926127.0
2.08500 1397826.0
2.09500 1003506.0
2.10500 806673.0
2.11500 676876.0
2.12500 524914.0
2.13500 427129.0
2.14500 377197.0
2.15500 311081.0
2.16500 258518.0
2.17500 232931.0
2.18500 207116.0
2.19500 172564.0
2.20500 148226.0
2.21500 138687.0
2.22500 123444.0
2.23500 105911.0
2.24500 98869.0
2.25500 91013.0
2.26500 79674.0
2.27500 73157.0
2.28500 70320.0
2.29500 65431.0
2.30500 56964.0
2.31500 53667.0
2.32500 52795.0
2.33500 47106.0
2.34500 44011.0
2.35500 43085.0
2.36500 40536.0
2.37500 36914.0
2.38500 35950.0
2.39500 35198.0
2.40500 32497.0
2.41500 29982.0
2.42500 30203.0
2.43500 28914.0
2.44500 25995.0
2.45500 25153.0
2.46500 24838.0
2.47500 23033.0
2.48500 21144.0
2.49500 20635.0
2.50500 20306.0
2.51500 18696.0
2.52500 17252.0
2.53500 17833.0
2.54500 17569.0
2.55500 15784.0
2.56500 15435.0
2.57500 15712.0
2.58500 14828.0
2.59500 13354.0
2.60500 13350.0
2.61500 13566.0
2.62500 11950.0
2.63500 11897.0
2.64500 12109.0
2.65500 11700.0
2.66500 10167.0
2.67500 9675.0
2.68500 10337.0
2.69500 9309.0
2.70500 8389.0
2.71500 8938.0
2.72500 8932.0
2.73500 8092.0
2.74500 7611.0
2.75500 8438.0
2.76500 7898.0
2.77500 6681.0
2.78500 6671.0
2.79500 7165.0
2.80500 6626.0
2.81500 6210.0
2.82500 6789.0
2.83500 6851.0
2.84500 6061.0
2.85500 5601.0
2.86500 6203.0
2.87500 5753.0
2.88500 5236.0
2.89500 5488.0
2.90500 5810.0
2.91500 5389.0
2.92500 4959.0
2.93500 5370.0
2.94500 5367.0
2.95500 4824.0
2.96500 4412.0
2.97500 4712.0
2.98500 4346.0
2.99500 4005.0
3.00500 4128.0
3.01500 4405.0
3.02500 4114.0
3.03500 3848.0
3.04500 4452.0
3.05500 4666.0
3.06500 4168.0
3.07500 3940.0
3.08500 4235.0
3.09500 4066.0
3.10500 3596.0
3.11500 3692.0
3.12500 3973.0
3.13500 3616.0
3.14500 3367.0
3.15500 3421.0
3.16500 3626.0
3.17500 3223.0
3.18500 3056.0
3.19500 3118.0
3.20500 3074.0
3.21500 2805.0
3.22500 2871.0
3.23500 3037.0
3.24500 2844.0
3.25500 2551.0
3.26500 2692.0
3.27500 2926.0
3.28500 2675.0
3.29500 2649.0
3.30500 2732.0
3.31500 2637.0
3.32500 2313.0
3.33500 2339.0
3.34500 2517.0
3.35500 2515.0
3.36500 2274.0
3.37500 2405.0
3.38500 2404.0
3.39500 2226.0
3.40500 1939.0
3.41500 2213.0
3.42500 2262.0
3.43500 1952.0
3.44500 1963.0
3.45500 2178.0
3.46500 2171.0
3.47500 1815.0
3.48500 1920.0
3.49500 1898.0
3.50500 1897.0
3.51500 1670.0
3.52500 1899.0
3.53500 1993.0
3.54500 1924.0
3.55500 2015.0
3.56500 2296.0
3.57500 2352.0
3.58500 1937.0
3.59500 1892.0
3.60500 2109.0
3.61500 1946.0
3.62500 1750.0
3.63500 1843.0
3.64500 1955.0
3.65500 1875.0
3.66500 1759.0
3.67500 1934.0
3.68500 1935.0
3.69500 1861.0
3.70500 2048.0
3.71500 2300.0
3.72500 2355.0
3.73500 2458.0
3.74500 3174.0
3.75500 4029.0
3.76500 4094.0
3.77500 4660.0
3.78500 6014.0
3.79500 7771.0
3.80500 9985.0
3.81500 15251.0
3.82500 26391.0
3.83500 42606.0
3.84500 56791.0
3.85500 60930.0
3.86500 52570.0
3.87500 37854.0
3.88500 23639.0
3.89500 14145.0
3.90500 8767.0
3.91500 6451.0
3.92500 4780.0
3.93500 4035.0
3.94500 3292.0
3.95500 2918.0
3.96500 2587.0
3.97500 2282.0
3.98500 2115.0
3.99500 1750.0
4.00500 1651.0
4.01500 1572.0
4.02500 1476.0
4.03500 1344.0
4.04500 1284.0
4.05500 1308.0
4.06500 1220.0
4.07500 1140.0
4.08500 1227.0
4.09500 1293.0
4.10500 1092.0
4.11500 1029.0
4.12500 983.0
4.13500 1007.0
4.14500 833.0
4.15500 873.0
4.16500 847.0
4.17500 845.0
4.18500 777.0
4.19500 875.0
4.20500 907.0
4.21500 792.0
4.22500 743.0
4.23500 711.0
4.24500 661.0
4.25500 668.0
4.26500 699.0
4.27500 638.0
4.28500 684.0
4.29500 719.0
4.30500 702.0
4.31500 664.0
4.32500 699.0
4.33500 690.0
4.34500 731.0
4.35500 591.0
4.36500 543.0
4.37500 646.0
4.38500 675.0
4.39500 592.0
4.40500 577.0
4.41500 580.0
4.42500 655.0
4.43500 618.0
4.44500 581.0
4.45500 550.0
4.46500 520.0
4.47500 539.0
4.48500 559.0
4.49500 583.0
4.50500 594.0
4.51500 537.0
4.52500 538.0
4.53500 537.0
4.54500 485.0
4.55500 483.0
4.56500 481.0
4.57500 531.0
4.58500 531.0
4.59500 501.0
4.60500 461.0
4.61500 465.0
4.62500 557.0
4.63500 524.0
4.64500 491.0
4.65500 459.0
4.66500 416.0
4.67500 452.0
4.68500 456.0
4.69500 424.0
4.70500 402.0
4.71500 420.0
4.72500 407.0
4.73500 396.0
4.74500 397.0
4.75500 394.0
4.76500 456.0
4.77500 392.0
4.78500 308.0
4.79500 379.0
4.80500 334.0
4.81500 302.0
4.82500 326.0
4.83500 373.0
4.84500 286.0
4.85500 314.0
4.86500 328.0
4.87500 328.0
4.88500 327.0
4.89500 324.0
4.90500 304.0
4.91500 396.0
4.92500 327.0
4.93500 356.0
4.94500 387.0
4.95500 345.0
4.96500 352.0
4.97500 346.0
4.98500 369.0
4.99500 321.0
5.00500 328.0
5.01500 386.0
5.02500 342.0
5.03500 302.0
5.04500 290.0
5.05500 299.0
5.06500 330.0
5.07500 352.0
5.08500 425.0
5.09500 402.0
5.10500 392.0
5.11500 295.0
5.12500 223.0
5.13500 284.0
5.14500 287.0
5.15500 277.0
5.16500 236.0
5.17500 243.0
5.18500 236.0
5.19500 272.0
5.20500 281.0
5.21500 216.0
5.22500 244.0
5.23500 253.0
5.24500 282.0
5.25500 204.0
5.26500 285.0
5.27500 293.0
5.28500 250.0
5.29500 246.0
5.30500 252.0
5.31500 249.0
5.32500 246.0
5.33500 227.0
5.34500 201.0
5.35500 263.0
5.36500 299.0
5.37500 314.0
5.38500 316.0
5.39500 308.0
5.40500 239.0
5.41500 274.0
5.42500 362.0
5.43500 303.0
5.44500 340.0
5.45500 366.0
5.46500 337.0
5.47500 347.0
5.48500 362.0
5.49500 318.0
5.50500 374.0
5.51500 347.0
5.52500 393.0
5.53500 390.0
5.54500 335.0
5.55500 353.0
5.56500 333.0
5.57500 329.0
5.58500 404.0
5.59500 381.0
5.60500 403.0
5.61500 516.0
5.62500 574.0
5.63500 793.0
5.64500 824.0
5.65500 1223.0
5.66500 1784.0
5.67500 2608.0
5.68500 3602.0
5.69500 5304.0
5.70500 8865.0
5.71500 13843.0
5.72500 18407.0
5.73500 19570.0
5.74500 17538.0
5.75500 12685.0
5.76500 8480.0
5.77500 5724.0
5.78500 4166.0
5.79500 3106.0
5.80500 2370.0
5.81500 2009.0
5.82500 1465.0
5.83500 1250.0
5.84500 1049.0
5.85500 944.0
5.86500 848.0
5.87500 919.0
5.88500 707.0
5.89500 705.0
5.90500 569.0
5.91500 630.0
5.92500 573.0
5.93500 544.0
5.94500 507.0
5.95500 562.0
5.96500 562.0
5.97500 361.0
5.98500 319.0
5.99500 328.0
6.00500 378.0
6.01500 389.0
6.02500 343.0
6.03500 287.0
6.04500 312.0
6.05500 352.0
6.06500 338.0
6.07500 454.0
6.08500 311.0
6.09500 329.0
6.10500 268.0
6.11500 308.0
6.12500 292.0
6.13500 262.0
6.14500 351.0
6.15500 233.0
6.16500 242.0
6.17500 248.0
6.18500 193.0
6.19500 206.0
6.20500 222.0
6.21500 261.0
6.22500 193.0
6.23500 196.0
6.24500 217.0
6.25500 217.0
6.26500 219.0
6.27500 270.0
6.28500 220.0
6.29500 220.0
6.30500 272.0
6.31500 303.0
6.32500 251.0
6.33500 280.0
6.34500 269.0
6.35500 391.0
6.36500 326.0
6.37500 221.0
6.38500 212.0
6.39500 190.0
6.40500 180.0
6.41500 149.0
6.42500 165.0
6.43500 216.0
6.44500 211.0
6.45500 232.0
6.46500 221.0
6.47500 150.0
6.48500 125.0
6.49500 133.0
6.50500 137.0
6.51500 134.0
6.52500 157.0
6.53500 123.0
6.54500 154.0
6.55500 143.0
6.56500 104.0
6.57500 116.0
6.58500 123.0
6.59500 153.0
6.60500 106.0
6.61500 140.0
6.62500 129.0
6.63500 142.0
6.64500 154.0
6.65500 128.0
6.66500 142.0
6.67500 148.0
6.68500 132.0
6.69500 113.0
6.70500 122.0
6.71500 141.0
6.72500 107.0
6.73500 96.0
6.74500 117.0
6.75500 121.0
6.76500 106.0
6.77500 108.0
6.78500 126.0
6.79500 106.0
6.80500 134.0
6.81500 112.0
6.82500 126.0
6.83500 124.0
6.84500 131.0
6.85500 120.0
6.86500 178.0
6.87500 109.0
6.88500 166.0
6.89500 136.0
6.90500 122.0
6.91500 121.0
6.92500 120.0
6.93500 141.0
6.94500 80.0
6.95500 112.0
6.96500 112.0
6.97500 104.0
6.98500 111.0
6.99500 148.0
7.00500 156.0
7.01500 123.0
7.02500 125.0
7.03500 155.0
7.04500 134.0
7.05500 127.0
7.06500 119.0
7.07500 134.0
7.08500 141.0
7.09500 170.0
7.10500 260.0
7.11500 233.0
7.12500 230.0
7.13500 180.0
7.14500 200.0
7.15500 197.0
7.16500 183.0
7.17500 175.0
7.18500 153.0
7.19500 181.0
7.20500 213.0
7.21500 176.0
7.22500 194.0
7.23500 200.0
7.24500 214.0
7.25500 204.0
7.26500 208.0
7.27500 189.0
7.28500 116.0
7.29500 142.0
7.30500 168.0
7.31500 149.0
7.32500 195.0
7.33500 170.0
7.34500 165.0
7.35500 163.0
7.36500 185.0
7.37500 181.0
7.38500 167.0
7.39500 170.0
7.40500 184.0
7.41500 200.0
7.42500 160.0
7.43500 201.0
7.44500 235.0
7.45500 279.0
7.46500 350.0
7.47500 287.0
7.48500 189.0
7.49500 205.0
7.50500 273.0
7.51500 203.0
7.52500 230.0
7.53500 295.0
7.54500 325.0
7.55500 395.0
7.56500 550.0
7.57500 586.0
7.58500 837.0
7.59500 1094.0
7.60500 1428.0
7.61500 1659.0
7.62500 1722.0
7.63500 1582.0
7.64500 1278.0
7.65500 1108.0
7.66500 847.0
7.67500 659.0
7.68500 519.0
7.69500 394.0
7.70500 369.0
7.71500 290.0
7.72500 342.0
7.73500 290.0
7.74500 249.0
7.75500 234.0
7.76500 190.0
7.77500 235.0
7.78500 218.0
7.79500 217.0
7.80500 221.0
7.81500 198.0
7.82500 213.0
7.83500 251.0
7.84500 237.0
7.85500 243.0
7.86500 210.0
7.87500 164.0
7.88500 193.0
7.89500 163.0
7.90500 189.0
7.91500 182.0
7.92500 157.0
7.93500 165.0
7.94500 117.0
7.95500 157.0
7.96500 141.0
7.97500 148.0
7.98500 159.0
7.99500 152.0
8.00500 149.0
8.01500 187.0
8.02500 206.0
8.03500 239.0
8.04500 280.0
8.05500 174.0
8.06500 218.0
8.07500 218.0
8.08500 172.0
8.09500 205.0
8.10500 187.0
8.11500 152.0
8.12500 167.0
8.13500 165.0
8.14500 137.0
8.15500 203.0
8.16500 198.0
8.17500 239.0
8.18500 282.0
8.19500 240.0
8.20500 267.0
8.21500 204.0
8.22500 181.0
8.23500 199.0
8.24500 165.0
8.25500 142.0
8.26500 99.0
8.27500 136.0
8.28500 138.0
8.29500 155.0
8.30500 137.0
8.31500 207.0
8.32500 163.0
8.33500 161.0
8.34500 138.0
8.35500 142.0
8.36500 137.0
8.37500 131.0
8.38500 115.0
8.39500 99.0
8.40500 94.0
8.41500 103.0
8.42500 120.0
8.43500 154.0
8.44500 191.0
8.45500 202.0
8.46500 138.0
8.47500 131.0
8.48500 119.0
8.49500 94.0
8.50500 101.0
8.51500 129.0
8.52500 123.0
8.53500 101.0
8.54500 133.0
8.55500 135.0
8.56500 142.0
8.57500 137.0
8.58500 99.0
8.59500 127.0
8.60500 115.0
8.61500 88.0
8.62500 91.0
8.63500 93.0
8.64500 97.0
8.65500 105.0
8.66500 170.0
8.67500 164.0
8.68500 147.0
8.69500 142.0
8.70500 113.0
8.71500 82.0
8.72500 139.0
8.73500 114.0
8.74500 182.0
8.75500 150.0
8.76500 153.0
8.77500 144.0
8.78500 134.0
8.79500 130.0
8.80500 181.0
8.81500 116.0
8.82500 122.0
8.83500 161.0
8.84500 138.0
8.85500 116.0
8.86500 113.0
8.87500 127.0
8.88500 118.0
8.89500 79.0
8.90500 95.0
8.91500 146.0
8.92500 184.0
8.93500 186.0
8.94500 256.0
8.95500 165.0
8.96500 159.0
8.97500 174.0
8.98500 184.0
8.99500 148.0
9.00500 164.0
9.01500 197.0
9.02500 167.0
9.03500 157.0
9.04500 171.0
9.05500 220.0
9.06500 236.0
9.07500 207.0
9.08500 176.0
9.09500 251.0
9.10500 243.0
9.11500 224.0
9.12500 274.0
9.13500 266.0
9.14500 216.0
9.15500 239.0
9.16500 165.0
9.17500 108.0
9.18500 150.0
9.19500 125.0
9.20500 149.0
9.21500 158.0
9.22500 177.0
9.23500 228.0
9.24500 238.0
9.25500 228.0
9.26500 184.0
9.27500 174.0
9.28500 188.0
9.29500 170.0
9.30500 207.0
9.31500 165.0
9.32500 163.0
9.33500 93.0
9.34500 85.0
9.35500 89.0
9.36500 106.0
9.37500 129.0
9.38500 143.0
9.39500 142.0
9.40500 152.0
9.41500 182.0
9.42500 161.0
9.43500 121.0
9.44500 126.0
9.45500 144.0
9.46500 172.0
9.47500 203.0
9.48500 209.0
9.49500 254.0
9.50500 223.0
9.51500 182.0
9.52500 247.0
9.53500 202.0
9.54500 182.0
9.55500 160.0
9.56500 194.0
9.57500 222.0
9.58500 193.0
9.59500 248.0
9.60500 224.0
9.61500 226.0
9.62500 236.0
9.63500 198.0
9.64500 217.0
9.65500 218.0
9.66500 178.0
9.67500 152.0
9.68500 167.0
9.69500 133.0
9.70500 205.0
9.71500 129.0
9.72500 156.0
9.73500 147.0
9.74500 157.0
9.75500 183.0
9.76500 204.0
9.77500 210.0
9.78500 265.0
9.79500 223.0
9.80500 261.0
9.81500 299.0
9.82500 315.0
9.83500 315.0
9.84500 244.0
9.85500 241.0
9.86500 169.0
9.87500 234.0
9.88500 216.0
9.89500 243.0
9.90500 219.0
9.91500 219.0
9.92500 195.0
9.93500 202.0
9.94500 231.0
9.95500 247.0
9.96500 288.0
9.97500 223.0
9.98500 252.0
9.99500 271.0
10.00500 262.0
10.01500 261.0
10.02500 318.0
10.03500 243.0
10.04500 293.0
10.05500 317.0
10.06500 340.0
10.07500 298.0
10.08500 234.0
10.09500 286.0
10.10500 309.0
10.11500 324.0
10.12500 309.0
10.13500 313.0
10.14500 271.0
10.15500 252.0
10.16500 200.0
10.17500 325.0
10.18500 329.0
10.19500 386.0
10.20500 426.0
10.21500 256.0
10.22500 261.0
10.23500 289.0
10.24500 257.0
10.25500 208.0
10.26500 240.0
10.27500 231.0
10.28500 224.0
10.29500 223.0
10.30500 241.0
10.31500 259.0
10.32500 275.0
10.33500 161.0
10.34500 125.0
10.35500 108.0
10.36500 164.0
10.37500 164.0
10.38500 176.0
10.39500 191.0
10.40500 175.0
10.41500 160.0
10.42500 185.0
10.43500 166.0
10.44500 206.0
10.45500 189.0
10.46500 138.0
10.47500 202.0
10.48500 176.0
10.49500 222.0
10.50500 216.0
10.51500 187.0
10.52500 195.0
10.53500 151.0
10.54500 151.0
10.55500 213.0
10.56500 148.0
10.57500 131.0
10.58500 96.0
10.59500 127.0
10.60500 103.0
10.61500 141.0
10.62500 152.0
10.63500 193.0
10.64500 187.0
10.65500 167.0
10.66500 177.0
10.67500 173.0
10.68500 127.0
10.69500 102.0
10.70500 109.0
10.71500 109.0
10.72500 121.0
10.73500 132.0
10.74500 155.0
10.75500 207.0
10.76500 121.0
10.77500 143.0
10.78500 140.0
10.79500 138.0
10.80500 79.0
10.81500 70.0
10.82500 91.0
10.83500 99.0
10.84500 106.0
10.85500 73.0
10.86500 104.0
10.87500 61.0
10.88500 73.0
10.89500 66.0
10.90500 69.0
10.91500 70.0
10.92500 83.0
10.93500 85.0
10.94500 111.0
10.95500 67.0
10.96500 103.0
10.97500 101.0
10.98500 92.0
10.99500 85.0
11.00500 70.0
11.01500 61.0
11.02500 71.0
11.03500 64.0
11.04500 94.0
11.05500 63.0
11.06500 99.0
11.07500 86.0
11.08500 93.0
11.09500 85.0
11.10500 88.0
11.11500 85.0
11.12500 75.0
11.13500 74.0
11.14500 94.0
11.15500 71.0
11.16500 58.0
11.17500 48.0
11.18500 56.0
11.19500 69.0
11.20500 103.0
11.21500 109.0
11.22500 128.0
11.23500 161.0
11.24500 161.0
11.25500 184.0
11.26500 160.0
11.27500 152.0
11.28500 188.0
11.29500 139.0
11.30500 185.0
11.31500 116.0
11.32500 116.0
11.33500 121.0
11.34500 105.0
11.35500 144.0
11.36500 175.0
11.37500 177.0
11.38500 227.0
11.39500 209.0
11.40500 209.0
11.41500 255.0
11.42500 243.0
11.43500 310.0
11.44500 300.0
11.45500 284.0
11.46500 302.0
11.47500 217.0
11.48500 146.0
11.49500 150.0
11.50500 150.0
11.51500 161.0
11.52500 129.0
11.53500 115.0
11.54500 146.0
11.55500 118.0
11.56500 122.0
11.57500 106.0
11.58500 164.0
11.59500 163.0
11.60500 133.0
11.61500 121.0
11.62500 131.0
11.63500 176.0
11.64500 121.0
11.65500 133.0
11.66500 108.0
11.67500 117.0
11.68500 113.0
11.69500 110.0
11.70500 138.0
11.71500 145.0
11.72500 120.0
11.73500 109.0
11.74500 100.0
11.75500 92.0
11.76500 132.0
11.77500 126.0
11.78500 164.0
11.79500 167.0
11.80500 215.0
11.81500 168.0
11.82500 163.0
11.83500 147.0
11.84500 140.0
11.85500 152.0
11.86500 141.0
11.87500 143.0
11.88500 176.0
11.89500 220.0
11.90500 159.0
11.91500 168.0
11.92500 159.0
11.93500 135.0
11.94500 215.0
11.95500 186.0
11.96500 217.0
11.97500 167.0
11.98500 127.0
11.99500 108.0
