0.00500 39859216.0
0.01500 43959784.0
0.02500 34864552.0
0.03500 21991904.0
0.04500 12558973.0
0.05500 7501501.0
0.06500 6031990.0
0.07500 6262912.0
0.08500 7032795.0
0.09500 7883381.0
0.10500 8648664.0
0.11500 9518578.0
0.12500 10290740.0
0.13500 11122308.0
0.14500 11903584.0
0.15500 12535108.0
0.16500 13377911.0
0.17500 14070883.0
0.18500 14769149.0
0.19500 15522609.0
0.20500 16153589.0
0.21500 16891042.0
0.22500 17579586.0
0.23500 18229036.0
0.24500 18806036.0
0.25500 19331268.0
0.26500 19933458.0
0.27500 20451232.0
0.28500 20967054.0
0.29500 21441188.0
0.30500 21991176.0
0.31500 22512026.0
0.32500 23157718.0
0.33500 23658310.0
0.34500 24103116.0
0.35500 24456748.0
0.36500 24794672.0
0.37500 25228248.0
0.38500 25535866.0
0.39500 25878708.0
0.40500 26271416.0
0.41500 26361192.0
0.42500 26666702.0
0.43500 26917212.0
0.44500 27245730.0
0.45500 27420020.0
0.46500 27456748.0
0.47500 27689974.0
0.48500 27799048.0
0.49500 27793786.0
0.50500 27809576.0
0.51500 27654344.0
0.52500 27432838.0
0.53500 27209884.0
0.54500 26681104.0
0.55500 26037108.0
0.56500 24927276.0
0.57500 23341986.0
0.58500 21338484.0
0.59500 18406518.0
0.60500 15026766.0
0.61500 11770781.0
0.62500 9782786.0
0.63500 9702368.0
0.64500 10691545.0
0.65500 11417678.0
0.66500 10975488.0
0.67500 9092931.0
0.68500 6595855.0
0.69500 3968697.0
0.70500 2163682.0
0.71500 1590417.0
0.72500 2113973.0
0.73500 3123665.0
0.74500 4081267.0
0.75500 4716471.0
0.76500 4939837.0
0.77500 4712598.0
0.78500 4215967.0
0.79500 3522819.0
0.80500 2754773.0
0.81500 2018117.0
0.82500 1375274.0
0.83500 905013.0
0.84500 624055.0
0.85500 511348.0
0.86500 537791.0
0.87500 679424.0
0.88500 858873.0
0.89500 1055747.0
0.90500 1237861.0
0.91500 1371672.0
0.92500 1458325.0
0.93500 1441941.0
0.94500 1384908.0
0.95500 1284809.0
0.96500 1134540.0
0.97500 948907.0
0.98500 762453.0
0.99500 591899.0
1.00500 438826.0
1.01500 315771.0
1.02500 232679.0
1.03500 184823.0
1.04500 174296.0
1.05500 193198.0
1.06500 232476.0
1.07500 287995.0
1.08500 350306.0
1.09500 404710.0
1.10500 450029.0
1.11500 479717.0
1.12500 488937.0
1.13500 485661.0
1.14500 459863.0
1.15500 421635.0
1.16500 374679.0
1.17500 319857.0
1.18500 260835.0
1.19500 205024.0
1.20500 157017.0
1.21500 115363.0
1.22500 85769.0
1.23500 67103.0
1.24500 59673.0
1.25500 62480.0
1.26500 74234.0
1.27500 91979.0
1.28500 112488.0
1.29500 133101.0
1.30500 149526.0
1.31500 164937.0
1.32500 173245.0
1.33500 178059.0
1.34500 175444.0
1.35500 168072.0
1.36500 155041.0
1.37500 136803.0
1.38500 117745.0
1.39500 97875.0
1.40500 77805.0
1.41500 59473.0
1.42500 43372.0
1.43500 31820.0
1.44500 24440.0
1.45500 20943.0
1.46500 20950.0
1.47500 24763.0
1.48500 30501.0
1.49500 38626.0
1.50500 47051.0
1.51500 55264.0
1.52500 62343.0
1.53500 68061.0
1.54500 70977.0
1.55500 71374.0
1.56500 68492.0
1.57500 64452.0
1.58500 58233.0
1.59500 50665.0
1.60500 42493.0
1.61500 34519.0
1.62500 26476.0
1.63500 20118.0
1.64500 14682.0
1.65500 10627.0
1.66500 8467.0
1.67500 7844.0
1.68500 8755.0
1.69500 10740.0
1.70500 13933.0
1.71500 17642.0
1.72500 21729.0
1.73500 25248.0
1.74500 28345.0
1.75500 30487.0
1.76500 31343.0
1.77500 31567.0
1.78500 30474.0
1.79500 28674.0
1.80500 25855.0
1.81500 22138.0
1.82500 18290.0
1.83500 14623.0
1.84500 11400.0
1.85500 8235.0
1.86500 5916.0
1.87500 4634.0
1.88500 3909.0
1.89500 4053.0
1.90500 4855.0
1.91500 6438.0
1.92500 8286.0
1.93500 10614.0
1.94500 12739.0
1.95500 14813.0
1.96500 16657.0
1.97500 17416.0
1.98500 18122.0
1.99500 18333.0
2.00500 17198.0
2.01500 16195.0
2.02500 15003.0
2.03500 12973.0
2.04500 11054.0
2.05500 8771.0
2.06500 7005.0
2.07500 5595.0
2.08500 4340.0
2.09500 3746.0
2.10500 3265.0
2.11500 3455.0
2.12500 3860.0
2.13500 4594.0
2.14500 5595.0
2.15500 6961.0
2.16500 8392.0
2.17500 9540.0
2.18500 10618.0
2.19500 11468.0
2.20500 12077.0
2.21500 12172.0
2.22500 11972.0
2.23500 11710.0
2.24500 11078.0
2.25500 9935.0
2.26500 8941.0
2.27500 7630.0
2.28500 6376.0
2.29500 5198.0
2.30500 4443.0
2.31500 3721.0
2.32500 3296.0
2.33500 3065.0
2.34500 3213.0
2.35500 3482.0
2.36500 4327.0
2.37500 5003.0
2.38500 5579.0
2.39500 6653.0
2.40500 7419.0
2.41500 8258.0
2.42500 8928.0
2.43500 9343.0
2.44500 9630.0
2.45500 9543.0
2.46500 9245.0
2.47500 8509.0
2.48500 7871.0
2.49500 6964.0
2.50500 6167.0
2.51500 5182.0
2.52500 4460.0
2.53500 3781.0
2.54500 3231.0
2.55500 3004.0
2.56500 2755.0
2.57500 3019.0
2.58500 3161.0
2.59500 3460.0
2.60500 4005.0
2.61500 4532.0
2.62500 5185.0
2.63500 5741.0
2.64500 6183.0
2.65500 6720.0
2.66500 6952.0
2.67500 6867.0
2.68500 6755.0
2.69500 6699.0
2.70500 6407.0
2.71500 5943.0
2.72500 5386.0
2.73500 4822.0
2.74500 4290.0
2.75500 3683.0
2.76500 3108.0
2.77500 2714.0
2.78500 2436.0
2.79500 2226.0
2.80500 2358.0
2.81500 2403.0
2.82500 2509.0
2.83500 2944.0
2.84500 3180.0
2.85500 3520.0
2.86500 3876.0
2.87500 4359.0
2.88500 4630.0
2.89500 4786.0
2.90500 4991.0
2.91500 5039.0
2.92500 4692.0
2.93500 4538.0
2.94500 4200.0
2.95500 3957.0
2.96500 3595.0
2.97500 3166.0
2.98500 2852.0
2.99500 2443.0
3.00500 2109.0
3.01500 2019.0
3.02500 1757.0
3.03500 1676.0
3.04500 1608.0
3.05500 1753.0
3.06500 1892.0
3.07500 1949.0
3.08500 2220.0
3.09500 2456.0
3.10500 2591.0
3.11500 2834.0
3.12500 2948.0
3.13500 2996.0
3.14500 3065.0
3.15500 2911.0
3.16500 2900.0
3.17500 2864.0
3.18500 2621.0
3.19500 2374.0
3.20500 2026.0
3.21500 1841.0
3.22500 1645.0
3.23500 1482.0
3.24500 1260.0
3.25500 1149.0
3.26500 1161.0
3.27500 1042.0
3.28500 1032.0
3.29500 1009.0
3.30500 1115.0
3.31500 1144.0
3.32500 1334.0
3.33500 1450.0
3.34500 1594.0
3.35500 1761.0
3.36500 1836.0
3.37500 1907.0
3.38500 1941.0
3.39500 1842.0
3.40500 1681.0
3.41500 1623.0
3.42500 1525.0
3.43500 1406.0
3.44500 1223.0
3.45500 1082.0
3.46500 988.0
3.47500 776.0
3.48500 697.0
3.49500 630.0
3.50500 621.0
3.51500 551.0
3.52500 562.0
3.53500 621.0
3.54500 666.0
3.55500 756.0
3.56500 820.0
3.57500 897.0
3.58500 924.0
3.59500 999.0
3.60500 1054.0
3.61500 1001.0
3.62500 1062.0
3.63500 1042.0
3.64500 957.0
3.65500 909.0
3.66500 809.0
3.67500 727.0
3.68500 641.0
3.69500 593.0
3.70500 506.0
3.71500 417.0
3.72500 335.0
3.73500 309.0
3.74500 319.0
3.75500 300.0
3.76500 349.0
3.77500 379.0
3.78500 380.0
3.79500 433.0
3.80500 491.0
3.81500 617.0
3.82500 617.0
3.83500 657.0
3.84500 619.0
3.85500 681.0
3.86500 651.0
3.87500 551.0
3.88500 592.0
3.89500 554.0
3.90500 513.0
3.91500 442.0
3.92500 380.0
3.93500 327.0
3.94500 254.0
3.95500 211.0
3.96500 197.0
3.97500 214.0
3.98500 260.0
3.99500 270.0
4.00500 331.0
4.01500 312.0
4.02500 372.0
4.03500 435.0
4.04500 409.0
4.05500 437.0
4.06500 414.0
4.07500 445.0
4.08500 439.0
4.09500 405.0
4.10500 397.0
4.11500 371.0
4.12500 313.0
4.13500 313.0
4.14500 247.0
4.15500 219.0
4.16500 190.0
4.17500 187.0
4.18500 137.0
4.19500 147.0
4.20500 131.0
4.21500 157.0
4.22500 154.0
4.23500 190.0
4.24500 216.0
4.25500 212.0
4.26500 273.0
4.27500 317.0
4.28500 324.0
4.29500 350.0
4.30500 350.0
4.31500 356.0
4.32500 320.0
4.33500 294.0
4.34500 284.0
4.35500 321.0
4.36500 233.0
4.37500 200.0
4.38500 180.0
4.39500 169.0
4.40500 130.0
4.41500 167.0
4.42500 147.0
4.43500 153.0
4.44500 155.0
4.45500 146.0
4.46500 152.0
4.47500 211.0
4.48500 247.0
4.49500 272.0
4.50500 333.0
4.51500 366.0
4.52500 362.0
4.53500 401.0
4.54500 398.0
4.55500 312.0
4.56500 318.0
4.57500 293.0
4.58500 310.0
4.59500 229.0
4.60500 213.0
4.61500 188.0
4.62500 160.0
4.63500 166.0
4.64500 143.0
4.65500 136.0
4.66500 159.0
4.67500 176.0
4.68500 194.0
4.69500 215.0
4.70500 238.0
4.71500 241.0
4.72500 275.0
4.73500 284.0
4.74500 336.0
4.75500 332.0
4.76500 525.0
4.77500 599.0
4.78500 683.0
4.79500 827.0
4.80500 1034.0
4.81500 1551.0
4.82500 2300.0
4.83500 3013.0
4.84500 3036.0
4.85500 2895.0
4.86500 3171.0
4.87500 3610.0
4.88500 4478.0
4.89500 6641.0
4.90500 9699.0
4.91500 12230.0
4.92500 13162.0
4.93500 13401.0
4.94500 12426.0
4.95500 10668.0
4.96500 9055.0
4.97500 7610.0
4.98500 5689.0
4.99500 3659.0
5.00500 2151.0
5.01500 1447.0
5.02500 954.0
5.03500 686.0
5.04500 579.0
5.05500 565.0
5.06500 580.0
5.07500 568.0
5.08500 595.0
5.09500 640.0
5.10500 631.0
5.11500 632.0
5.12500 619.0
5.13500 546.0
5.14500 480.0
5.15500 430.0
5.16500 422.0
5.17500 359.0
5.18500 322.0
5.19500 254.0
5.20500 219.0
5.21500 188.0
5.22500 164.0
5.23500 177.0
5.24500 152.0
5.25500 133.0
5.26500 134.0
5.27500 140.0
5.28500 153.0
5.29500 149.0
5.30500 166.0
5.31500 152.0
5.32500 150.0
5.33500 123.0
5.34500 140.0
5.35500 144.0
5.36500 134.0
5.37500 154.0
5.38500 138.0
5.39500 134.0
5.40500 147.0
5.41500 129.0
5.42500 157.0
5.43500 146.0
5.44500 147.0
5.45500 131.0
5.46500 125.0
5.47500 124.0
5.48500 135.0
5.49500 129.0
5.50500 120.0
5.51500 166.0
5.52500 138.0
5.53500 113.0
5.54500 103.0
5.55500 125.0
5.56500 100.0
5.57500 126.0
5.58500 116.0
5.59500 114.0
5.60500 97.0
5.61500 100.0
5.62500 91.0
5.63500 112.0
5.64500 86.0
5.65500 96.0
5.66500 111.0
5.67500 103.0
5.68500 98.0
5.69500 78.0
5.70500 106.0
5.71500 70.0
5.72500 79.0
5.73500 74.0
5.74500 81.0
5.75500 106.0
5.76500 90.0
5.77500 92.0
5.78500 90.0
5.79500 88.0
5.80500 75.0
5.81500 82.0
5.82500 95.0
5.83500 82.0
5.84500 98.0
5.85500 89.0
5.86500 91.0
5.87500 78.0
5.88500 91.0
5.89500 106.0
5.90500 113.0
5.91500 88.0
5.92500 82.0
5.93500 79.0
5.94500 98.0
5.95500 90.0
5.96500 88.0
5.97500 99.0
5.98500 100.0
5.99500 104.0
6.00500 88.0
6.01500 97.0
6.02500 104.0
6.03500 111.0
6.04500 102.0
6.05500 95.0
6.06500 118.0
6.07500 105.0
6.08500 109.0
6.09500 111.0
6.10500 126.0
6.11500 104.0
6.12500 114.0
6.13500 88.0
6.14500 93.0
6.15500 89.0
6.16500 96.0
6.17500 99.0
6.18500 94.0
6.19500 71.0
6.20500 79.0
6.21500 92.0
6.22500 81.0
6.23500 85.0
6.24500 87.0
6.25500 86.0
6.26500 96.0
6.27500 82.0
6.28500 80.0
6.29500 86.0
6.30500 70.0
6.31500 88.0
6.32500 91.0
6.33500 87.0
6.34500 86.0
6.35500 84.0
6.36500 98.0
6.37500 128.0
6.38500 104.0
6.39500 82.0
6.40500 81.0
6.41500 75.0
6.42500 87.0
6.43500 84.0
6.44500 98.0
6.45500 80.0
6.46500 80.0
6.47500 94.0
6.48500 88.0
6.49500 79.0
6.50500 90.0
6.51500 108.0
6.52500 102.0
6.53500 76.0
6.54500 85.0
6.55500 85.0
6.56500 107.0
6.57500 86.0
6.58500 77.0
6.59500 91.0
6.60500 100.0
6.61500 72.0
6.62500 86.0
6.63500 93.0
6.64500 79.0
6.65500 91.0
6.66500 72.0
6.67500 58.0
6.68500 75.0
6.69500 57.0
6.70500 78.0
6.71500 81.0
6.72500 89.0
6.73500 82.0
6.74500 90.0
6.75500 93.0
6.76500 78.0
6.77500 81.0
6.78500 81.0
6.79500 86.0
6.80500 76.0
6.81500 94.0
6.82500 89.0
6.83500 62.0
6.84500 89.0
6.85500 91.0
6.86500 82.0
6.87500 76.0
6.88500 65.0
6.89500 99.0
6.90500 92.0
6.91500 75.0
6.92500 78.0
6.93500 69.0
6.94500 67.0
6.95500 69.0
6.96500 70.0
6.97500 71.0
6.98500 79.0
6.99500 82.0
7.00500 74.0
7.01500 87.0
7.02500 62.0
7.03500 94.0
7.04500 96.0
7.05500 78.0
7.06500 91.0
7.07500 70.0
7.08500 92.0
7.09500 80.0
7.10500 104.0
7.11500 106.0
7.12500 100.0
7.13500 100.0
7.14500 121.0
7.15500 90.0
7.16500 111.0
7.17500 105.0
7.18500 104.0
7.19500 88.0
7.20500 103.0
7.21500 98.0
7.22500 89.0
7.23500 81.0
7.24500 91.0
7.25500 108.0
7.26500 98.0
7.27500 81.0
7.28500 94.0
7.29500 112.0
7.30500 83.0
7.31500 94.0
7.32500 86.0
7.33500 112.0
7.34500 117.0
7.35500 81.0
7.36500 103.0
7.37500 79.0
7.38500 114.0
7.39500 88.0
7.40500 69.0
7.41500 73.0
7.42500 117.0
7.43500 90.0
7.44500 84.0
7.45500 70.0
7.46500 78.0
7.47500 86.0
7.48500 76.0
7.49500 85.0
7.50500 119.0
7.51500 117.0
7.52500 93.0
7.53500 114.0
7.54500 85.0
7.55500 77.0
7.56500 77.0
7.57500 92.0
7.58500 92.0
7.59500 85.0
7.60500 73.0
7.61500 113.0
7.62500 91.0
7.63500 117.0
7.64500 89.0
7.65500 125.0
7.66500 70.0
7.67500 75.0
7.68500 95.0
7.69500 90.0
7.70500 86.0
7.71500 94.0
7.72500 104.0
7.73500 72.0
7.74500 114.0
7.75500 106.0
7.76500 108.0
7.77500 77.0
7.78500 67.0
7.79500 94.0
7.80500 79.0
7.81500 77.0
7.82500 76.0
7.83500 77.0
7.84500 86.0
7.85500 90.0
7.86500 86.0
7.87500 94.0
7.88500 96.0
7.89500 71.0
7.90500 77.0
7.91500 71.0
7.92500 69.0
7.93500 70.0
7.94500 89.0
7.95500 95.0
7.96500 89.0
7.97500 78.0
7.98500 76.0
7.99500 84.0
8.00500 144.0
8.01500 127.0
8.02500 138.0
8.03500 93.0
8.04500 130.0
8.05500 126.0
8.06500 93.0
8.07500 106.0
8.08500 110.0
8.09500 87.0
8.10500 89.0
8.11500 80.0
8.12500 72.0
8.13500 102.0
8.14500 107.0
8.15500 128.0
8.16500 100.0
8.17500 95.0
8.18500 92.0
8.19500 94.0
8.20500 102.0
8.21500 93.0
8.22500 128.0
8.23500 141.0
8.24500 114.0
8.25500 102.0
8.26500 109.0
8.27500 112.0
8.28500 104.0
8.29500 102.0
8.30500 90.0
8.31500 81.0
8.32500 88.0
8.33500 82.0
8.34500 77.0
8.35500 65.0
8.36500 80.0
8.37500 80.0
8.38500 79.0
8.39500 107.0
8.40500 96.0
8.41500 77.0
8.42500 73.0
8.43500 65.0
8.44500 59.0
8.45500 61.0
8.46500 59.0
8.47500 61.0
8.48500 63.0
8.49500 64.0
8.50500 64.0
8.51500 60.0
8.52500 55.0
8.53500 67.0
8.54500 84.0
8.55500 100.0
8.56500 67.0
8.57500 110.0
8.58500 93.0
8.59500 83.0
8.60500 92.0
8.61500 86.0
8.62500 74.0
8.63500 89.0
8.64500 83.0
8.65500 111.0
8.66500 92.0
8.67500 80.0
8.68500 67.0
8.69500 92.0
8.70500 81.0
8.71500 83.0
8.72500 99.0
8.73500 110.0
8.74500 109.0
8.75500 85.0
8.76500 81.0
8.77500 109.0
8.78500 98.0
8.79500 95.0
