0.00500 477380444160.0
0.01500 515120267264.0
0.02500 382304223232.0
0.03500 225387511808.0
0.04500 114646319104.0
0.05500 63687999488.0
0.06500 55638216704.0
0.07500 60191354880.0
0.08500 69491744768.0
0.09500 76738101248.0
0.10500 84476772352.0
0.11500 92450668544.0
0.12500 97398292480.0
0.13500 107109842944.0
0.14500 113774018560.0
0.15500 120582561792.0
0.16500 129964998656.0
0.17500 134191218688.0
0.18500 143475605504.0
0.19500 150824845312.0
0.20500 156019343360.0
0.21500 167106428928.0
0.22500 170419339264.0
0.23500 178631884800.0
0.24500 187455209472.0
0.25500 191262310400.0
0.26500 203487936512.0
0.27500 205782073344.0
0.28500 212752941056.0
0.29500 222771904512.0
0.30500 226260385792.0
0.31500 236967313408.0
0.32500 240710860800.0
0.33500 246006169600.0
0.34500 256682115072.0
0.35500 258242740224.0
0.36500 266442293248.0
0.37500 270925594624.0
0.38500 273685659648.0
0.39500 283685978112.0
0.40500 285168402432.0
0.41500 293855199232.0
0.42500 301169639424.0
0.43500 299872059392.0
0.44500 312775606272.0
0.45500 316438839296.0
0.46500 323910434816.0
0.47500 332454494208.0
0.48500 329091252224.0
0.49500 339014123520.0
0.50500 344161550336.0
0.51500 347347910656.0
0.52500 356309237760.0
0.53500 352954744832.0
0.54500 362306142208.0
0.55500 366926888960.0
0.56500 367945056256.0
0.57500 376864604160.0
0.58500 372975828992.0
0.59500 375343939584.0
0.60500 380738732032.0
0.61500 378236239872.0
0.62500 384232292352.0
0.63500 374518513664.0
0.64500 367877980160.0
0.65500 363734204416.0
0.66500 343011131392.0
0.67500 321541046272.0
0.68500 282228326400.0
0.69500 241469276160.0
0.70500 207515156480.0
0.71500 175813443584.0
0.72500 153376718848.0
0.73500 134421708800.0
0.74500 117745033216.0
0.75500 107198717952.0
0.76500 95702712320.0
0.77500 86937223168.0
0.78500 79085666304.0
0.79500 70962937856.0
0.80500 66935033856.0
0.81500 62106587136.0
0.82500 58151825408.0
0.83500 53749866496.0
0.84500 49425031168.0
0.85500 46635192320.0
0.86500 43860762624.0
0.87500 40989614080.0
0.88500 38697922560.0
0.89500 35897634816.0
0.90500 34212288512.0
0.91500 32723486720.0
0.92500 31003570176.0
0.93500 29670856704.0
0.94500 27918870528.0
0.95500 26772492288.0
0.96500 25661327360.0
0.97500 24018034688.0
0.98500 23023687680.0
0.99500 21939542016.0
1.00500 21090637824.0
1.01500 20402925568.0
1.02500 19371700224.0
1.03500 18457501696.0
1.04500 17733707776.0
1.05500 17078803456.0
1.06500 16706872320.0
1.07500 16252233728.0
1.08500 15585946624.0
1.09500 14945895424.0
1.10500 14214507520.0
1.11500 13637864448.0
1.12500 13179855872.0
1.13500 12666075136.0
1.14500 12408190976.0
1.15500 11986361344.0
1.16500 11566070784.0
1.17500 11214991360.0
1.18500 10773875712.0
1.19500 10355724288.0
1.20500 10130342912.0
1.21500 9912805376.0
1.22500 9621749760.0
1.23500 9420380160.0
1.24500 8959951872.0
1.25500 8469050368.0
1.26500 8275511808.0
1.27500 7993378304.0
1.28500 7853821952.0
1.29500 7911901696.0
1.30500 7622188544.0
1.31500 7526936576.0
1.32500 7434341888.0
1.33500 7215644672.0
1.34500 7060201472.0
1.35500 6802304000.0
1.36500 6538924544.0
1.37500 6400766464.0
1.38500 6320576512.0
1.39500 6246218240.0
1.40500 6201942016.0
1.41500 6069545984.0
1.42500 5839995904.0
1.43500 5687168000.0
1.44500 5680762880.0
1.45500 5666791936.0
1.46500 5732060160.0
1.47500 5820598784.0
1.48500 5802278400.0
1.49500 5736548864.0
1.50500 5504580096.0
1.51500 5107433984.0
1.52500 4958297600.0
1.53500 5091337216.0
1.54500 5163905536.0
1.55500 5331096064.0
1.56500 5396447744.0
1.57500 5230375936.0
1.58500 5180505600.0
1.59500 5330760192.0
1.60500 5600083456.0
1.61500 5982796800.0
1.62500 6196669440.0
1.63500 6107627008.0
1.64500 6045645824.0
1.65500 6249700864.0
1.66500 6339945984.0
1.67500 6430135296.0
1.68500 6714352128.0
1.69500 7155802624.0
1.70500 7862450688.0
1.71500 9099662336.0
1.72500 10895210496.0
1.73500 13548541952.0
1.74500 17159119872.0
1.75500 21062221824.0
1.76500 25998100480.0
1.77500 32209231872.0
1.78500 39911092224.0
1.79500 50675863552.0
1.80500 66977509376.0
1.81500 88301682688.0
1.82500 115775070208.0
1.83500 151945248768.0
1.84500 193336901632.0
1.85500 214993256448.0
1.86500 198123438080.0
1.87500 145696849920.0
1.88500 87720280064.0
1.89500 45682855936.0
1.90500 25996617728.0
1.91500 17139400704.0
1.92500 11673139200.0
1.93500 9305227264.0
1.94500 7822761472.0
1.95500 6455909376.0
1.96500 5675896320.0
1.97500 4879003136.0
1.98500 3945853696.0
1.99500 3294544384.0
2.00500 2884518144.0
2.01500 2533984000.0
2.02500 2218818048.0
2.03500 2075360000.0
2.04500 1887835136.0
2.05500 1710882944.0
2.06500 1648831488.0
2.07500 1496283136.0
2.08500 1370152448.0
2.09500 1344336128.0
2.10500 1255838976.0
2.11500 1110590848.0
2.12500 1014192192.0
2.13500 960447872.0
2.14500 927037696.0
2.15500 943274240.0
2.16500 934295872.0
2.17500 842806016.0
2.18500 764727744.0
2.19500 752420992.0
2.20500 717458496.0
2.21500 707934656.0
2.22500 727779392.0
2.23500 718087808.0
2.24500 647463552.0
2.25500 629017344.0
2.26500 598040576.0
2.27500 554015744.0
2.28500 528381280.0
2.29500 528283360.0
2.30500 507249920.0
2.31500 487153504.0
2.32500 507753408.0
2.33500 476147296.0
2.34500 448470976.0
2.35500 444009760.0
2.36500 440527488.0
2.37500 421675712.0
2.38500 430206560.0
2.39500 431647040.0
2.40500 404586048.0
2.41500 383356832.0
2.42500 386111872.0
2.43500 359708192.0
2.44500 345457472.0
2.45500 343485600.0
2.46500 328661472.0
2.47500 305921888.0
2.48500 303782176.0
2.49500 303740224.0
2.50500 294677920.0
2.51500 297321088.0
2.52500 299320960.0
2.53500 273155008.0
2.54500 258568672.0
2.55500 262554384.0
2.56500 256191216.0
2.57500 244653584.0
2.58500 245366832.0
2.59500 238472224.0
2.60500 227340160.0
2.61500 221270672.0
2.62500 220669312.0
2.63500 209481312.0
2.64500 194643232.0
2.65500 201006400.0
2.66500 192377664.0
2.67500 193258720.0
2.68500 200055424.0
2.69500 204236944.0
2.70500 179287696.0
2.71500 174085280.0
2.72500 168966768.0
2.73500 157624928.0
2.74500 153583264.0
2.75500 155792896.0
2.76500 152016944.0
2.77500 143793776.0
2.78500 141290448.0
2.79500 141388352.0
2.80500 129277344.0
2.81500 120858368.0
2.82500 117348136.0
2.83500 113558200.0
2.84500 117963472.0
2.85500 123515520.0
2.86500 121879272.0
2.87500 110537440.0
2.88500 104663744.0
2.89500 99167632.0
2.90500 91084304.0
2.91500 92328968.0
2.92500 97405528.0
2.93500 87923696.0
2.94500 79574648.0
2.95500 83560376.0
2.96500 80329840.0
2.97500 74847720.0
2.98500 80735408.0
2.99500 80455704.0
3.00500 74470128.0
3.01500 69715224.0
3.02500 69519432.0
3.03500 65407844.0
3.04500 65813408.0
3.05500 69547408.0
3.06500 68288752.0
3.07500 61631896.0
3.08500 60569036.0
3.09500 55324660.0
3.10500 50961340.0
3.11500 49940436.0
3.12500 47940580.0
3.13500 51982244.0
3.14500 55506464.0
3.15500 69085904.0
3.16500 64932356.0
3.17500 55422556.0
3.18500 49674720.0
3.19500 47059524.0
3.20500 41899060.0
3.21500 45786888.0
3.22500 50038328.0
3.23500 47842684.0
3.24500 41941016.0
3.25500 37955288.0
3.26500 37256040.0
3.27500 36626716.0
3.28500 43577260.0
3.29500 46612004.0
3.30500 47353208.0
3.31500 46975616.0
3.32500 52247960.0
3.33500 58219556.0
3.34500 56429476.0
3.35500 64918368.0
3.36500 70204704.0
3.37500 72106656.0
3.38500 74400200.0
3.39500 84119776.0
3.40500 91433928.0
3.41500 90664752.0
3.42500 89909568.0
3.43500 103880576.0
3.44500 117446032.0
3.45500 134647584.0
3.46500 192895104.0
3.47500 278259552.0
3.48500 344296704.0
3.49500 408501856.0
3.50500 579636288.0
3.51500 859112512.0
3.52500 1081949568.0
3.53500 1054189312.0
3.54500 815675136.0
3.55500 533206080.0
3.56500 335598048.0
3.57500 210642064.0
3.58500 139528352.0
3.59500 93685512.0
3.60500 67855216.0
3.61500 52709464.0
3.62500 44318464.0
3.63500 38696496.0
3.64500 34500996.0
3.65500 32682944.0
3.66500 32207456.0
3.67500 29424440.0
3.68500 27844136.0
3.69500 25802324.0
3.70500 25494656.0
3.71500 24977210.0
3.72500 22725624.0
3.73500 22110284.0
3.74500 22306076.0
3.75500 20418100.0
3.76500 19746820.0
3.77500 20809680.0
3.78500 19774790.0
3.79500 18823810.0
3.80500 19970580.0
3.81500 20124416.0
3.82500 21425020.0
3.83500 17579144.0
3.84500 17201550.0
3.85500 17313430.0
3.86500 19439150.0
3.87500 20222310.0
3.88500 16782000.0
3.89500 19509076.0
3.90500 18809824.0
3.91500 16851924.0
3.92500 16250570.0
3.93500 13299735.0
3.94500 14670265.0
3.95500 13257780.0
3.96500 12544545.0
3.97500 11719430.0
3.98500 10950255.0
3.99500 11076120.0
4.00500 10880330.0
4.01500 10474765.0
4.02500 9677620.0
4.03500 9789500.0
4.04500 10069200.0
4.05500 10614615.0
4.06500 9999275.0
4.07500 11313865.0
4.08500 9705590.0
4.09500 10824390.0
4.10500 11999130.0
4.11500 11299880.0
4.12500 10936270.0
4.13500 10502735.0
4.14500 10516720.0
4.15500 9286040.0
4.16500 10292960.0
4.17500 10460780.0
4.18500 10838375.0
4.19500 10866345.0
4.20500 9929350.0
4.21500 8251150.0
4.22500 10223035.0
4.23500 7356110.0
4.24500 7747690.0
4.25500 7915510.0
4.26500 8810550.0
4.27500 7565885.0
4.28500 8349045.0
4.29500 7398065.0
4.30500 8404985.0
4.31500 9188145.0
4.32500 8502880.0
4.33500 9132205.0
4.34500 11132060.0
4.35500 12152965.0
4.36500 8307090.0
4.37500 9174160.0
4.38500 9132205.0
4.39500 9397920.0
4.40500 8391000.0
4.41500 7146335.0
4.42500 6866635.0
4.43500 6852650.0
4.44500 7789645.0
4.45500 8125285.0
4.46500 7607840.0
4.47500 7845585.0
4.48500 6698815.0
4.49500 5845730.0
4.50500 6824680.0
4.51500 6866635.0
4.52500 7705735.0
4.53500 6335205.0
4.54500 6796710.0
4.55500 5552045.0
4.56500 5398210.0
4.57500 5929640.0
4.58500 5705880.0
4.59500 6139415.0
4.60500 6782725.0
4.61500 7356110.0
4.62500 6055505.0
4.63500 6838665.0
4.64500 6544980.0
4.65500 6097460.0
4.66500 6461070.0
4.67500 5971595.0
4.68500 6321220.0
4.69500 5901670.0
4.70500 8335060.0
4.71500 7160320.0
4.72500 7286185.0
4.73500 7398065.0
4.74500 7020470.0
4.75500 8530850.0
4.76500 7398065.0
4.77500 8335060.0
4.78500 6558965.0
4.79500 5062570.0
4.80500 5705880.0
4.81500 6489040.0
4.82500 6768740.0
4.83500 8796565.0
4.84500 8349045.0
4.85500 7202275.0
4.86500 7216260.0
4.87500 6908590.0
4.88500 6600920.0
4.89500 7314155.0
4.90500 7733705.0
4.91500 9551755.0
4.92500 8796565.0
4.93500 7677765.0
4.94500 7132350.0
4.95500 7831600.0
4.96500 8404985.0
4.97500 8460925.0
4.98500 8446940.0
4.99500 9607695.0
5.00500 10125140.0
5.01500 11383790.0
5.02500 10726495.0
5.03500 10964240.0
5.04500 12838230.0
5.05500 15005905.0
5.06500 15453425.0
5.07500 15285605.0
5.08500 16600195.0
5.09500 16446360.0
5.10500 16488315.0
5.11500 17914784.0
5.12500 17033730.0
5.13500 19243360.0
5.14500 20935544.0
5.15500 22991340.0
5.16500 27564436.0
5.17500 32640990.0
5.18500 38976196.0
5.19500 41073944.0
5.20500 44542224.0
5.21500 49506900.0
5.22500 57702112.0
5.23500 67351760.0
5.24500 76274192.0
5.25500 77225168.0
5.26500 75029528.0
5.27500 66820328.0
5.28500 54163904.0
5.29500 40878156.0
5.30500 31899784.0
5.31500 23494800.0
5.32500 19606970.0
5.33500 16963804.0
5.34500 14838085.0
5.35500 12362740.0
5.36500 10390855.0
5.37500 9300025.0
5.38500 8027390.0
5.39500 7593855.0
5.40500 6838665.0
5.41500 6335205.0
5.42500 5831745.0
5.43500 6111445.0
5.44500 5943625.0
5.45500 6097460.0
5.46500 5412195.0
5.47500 5202420.0
5.48500 5761820.0
5.49500 6754755.0
5.50500 6307235.0
5.51500 6153400.0
5.52500 5985580.0
5.53500 5789790.0
5.54500 4824825.0
5.55500 4810840.0
5.56500 3887830.0
5.57500 5090540.0
5.58500 5859715.0
5.59500 6293250.0
5.60500 6950545.0
5.61500 6363175.0
5.62500 6698815.0
5.63500 6447085.0
5.64500 5789790.0
5.65500 6992500.0
5.66500 6027535.0
5.67500 5090540.0
5.68500 4279410.0
5.69500 5048585.0
5.70500 4657005.0
5.71500 4643020.0
5.72500 4657005.0
5.73500 4293395.0
5.74500 4601065.0
5.75500 4643020.0
5.76500 5286330.0
5.77500 4824825.0
5.78500 4726930.0
5.79500 4573095.0
5.80500 4013695.0
5.81500 4615050.0
5.82500 4936705.0
5.83500 4978660.0
5.84500 6600920.0
5.85500 5454150.0
5.86500 6992500.0
5.87500 7090395.0
5.88500 6544980.0
5.89500 6978515.0
5.90500 7705735.0
5.91500 7202275.0
5.92500 8698670.0
5.93500 6824680.0
5.94500 6894605.0
5.95500 6363175.0
5.96500 7188290.0
5.97500 8209195.0
5.98500 7244230.0
5.99500 6894605.0
6.00500 5775805.0
6.01500 6894605.0
6.02500 6111445.0
6.03500 5705880.0
6.04500 5314300.0
6.05500 4894750.0
6.06500 6335205.0
6.07500 6572950.0
6.08500 6614905.0
6.09500 5789790.0
6.10500 6656860.0
6.11500 5775805.0
6.12500 6097460.0
6.13500 6335205.0
6.14500 5482120.0
6.15500 5034600.0
6.16500 5062570.0
6.17500 6111445.0
6.18500 5160465.0
6.19500 3887830.0
6.20500 4433245.0
6.21500 3985725.0
6.22500 3733995.0
6.23500 3817905.0
6.24500 3244520.0
6.25500 3398355.0
6.26500 3873845.0
6.27500 3342415.0
6.28500 3468280.0
6.29500 3384370.0
6.30500 2978805.0
6.31500 3664070.0
6.32500 3901815.0
6.33500 3664070.0
6.34500 3636100.0
6.35500 3789935.0
6.36500 3929785.0
6.37500 3426325.0
6.38500 3412340.0
6.39500 3258505.0
6.40500 4013695.0
6.41500 3859860.0
6.42500 4069635.0
6.43500 4055650.0
6.44500 4545125.0
6.45500 3706025.0
6.46500 4181515.0
6.47500 3845875.0
6.48500 3608130.0
6.49500 2992790.0
6.50500 3314445.0
6.51500 3244520.0
6.52500 2727075.0
6.53500 3915800.0
6.54500 3314445.0
6.55500 3384370.0
6.56500 3482265.0
6.57500 4027680.0
6.58500 4153545.0
6.59500 4531140.0
6.60500 3370385.0
6.61500 4279410.0
6.62500 5286330.0
6.63500 4768885.0
6.64500 4838810.0
6.65500 4083620.0
6.66500 3733995.0
6.67500 3859860.0
6.68500 4139560.0
6.69500 4698960.0
6.70500 4964675.0
6.71500 4265425.0
6.72500 3216550.0
6.73500 2992790.0
6.74500 3789935.0
6.75500 4377305.0
6.76500 5006630.0
6.77500 5412195.0
6.78500 4768885.0
6.79500 4726930.0
6.80500 3915800.0
6.81500 4055650.0
6.82500 4363320.0
6.83500 3985725.0
6.84500 4153545.0
6.85500 4740915.0
6.86500 4461215.0
6.87500 4768885.0
6.88500 4950690.0
6.89500 6209340.0
6.90500 6614905.0
6.91500 5398210.0
6.92500 5971595.0
6.93500 7412050.0
6.94500 5607985.0
6.95500 5538060.0
6.96500 5482120.0
6.97500 6698815.0
6.98500 8013405.0
6.99500 6950545.0
7.00500 6433100.0
7.01500 5607985.0
7.02500 6698815.0
7.03500 5412195.0
7.04500 6111445.0
7.05500 5915655.0
7.06500 6223325.0
7.07500 7090395.0
7.08500 5635955.0
7.09500 6209340.0
7.10500 5845730.0
7.11500 6041520.0
7.12500 6964530.0
7.13500 5971595.0
7.14500 6461070.0
7.15500 5160465.0
7.16500 7090395.0
7.17500 7663780.0
7.18500 6237310.0
7.19500 6041520.0
7.20500 8670700.0
7.21500 6517010.0
7.22500 5677910.0
7.23500 5314300.0
7.24500 6866635.0
7.25500 4461215.0
7.26500 5887685.0
7.27500 4433245.0
7.28500 6069490.0
7.29500 5440165.0
7.30500 7565885.0
7.31500 5677910.0
7.32500 7230245.0
7.33500 6782725.0
7.34500 6139415.0
7.35500 7118365.0
7.36500 8670700.0
7.37500 10125140.0
7.38500 10908300.0
7.39500 9901380.0
7.40500 7412050.0
7.41500 7789645.0
7.42500 6041520.0
7.43500 7733705.0
7.44500 7286185.0
7.45500 5580015.0
7.46500 4629035.0
7.47500 5216405.0
7.48500 6237310.0
7.49500 5132495.0
7.50500 4279410.0
7.51500 3566175.0
7.52500 4531140.0
7.53500 6293250.0
7.54500 6279265.0
7.55500 6894605.0
7.56500 5761820.0
7.57500 5510090.0
7.58500 7006485.0
7.59500 6013550.0
7.60500 4894750.0
7.61500 4279410.0
7.62500 4559110.0
7.63500 4754900.0
7.64500 5524075.0
7.65500 3985725.0
7.66500 5006630.0
7.67500 4503170.0
7.68500 3999710.0
7.69500 3971740.0
7.70500 7202275.0
7.71500 8251150.0
7.72500 8418970.0
7.73500 7551900.0
7.74500 6419115.0
7.75500 5649940.0
7.76500 5412195.0
7.77500 5719865.0
7.78500 6544980.0
7.79500 5831745.0
7.80500 6013550.0
7.81500 7062425.0
7.82500 7118365.0
7.83500 5817760.0
7.84500 5426180.0
7.85500 5971595.0
7.86500 6628890.0
7.87500 6656860.0
7.88500 6782725.0
7.89500 5761820.0
7.90500 4852795.0
7.91500 5020615.0
7.92500 5538060.0
7.93500 4013695.0
7.94500 4125575.0
7.95500 5356255.0
7.96500 7551900.0
7.97500 5999565.0
7.98500 6475055.0
7.99500 6964530.0
8.00500 5510090.0
8.01500 5566030.0
8.02500 4782870.0
8.03500 4055650.0
8.04500 3286475.0
8.05500 3300460.0
8.06500 4349335.0
8.07500 6796710.0
8.08500 6503025.0
8.09500 6796710.0
8.10500 5817760.0
8.11500 4363320.0
8.12500 3845875.0
8.13500 5188435.0
8.14500 3692040.0
8.15500 3873845.0
8.16500 4615050.0
8.17500 3608130.0
8.18500 4391290.0
8.19500 3468280.0
8.20500 3608130.0
8.21500 4027680.0
8.22500 3747980.0
8.23500 4055650.0
8.24500 4643020.0
8.25500 3594145.0
8.26500 3230535.0
8.27500 3426325.0
8.28500 3510235.0
8.29500 3845875.0
8.30500 3733995.0
8.31500 4573095.0
8.32500 5468135.0
8.33500 5188435.0
8.34500 7481975.0
8.35500 5817760.0
8.36500 5747835.0
8.37500 5202420.0
8.38500 5761820.0
8.39500 5006630.0
8.40500 5985580.0
8.41500 4698960.0
8.42500 4013695.0
8.43500 4041665.0
8.44500 4153545.0
8.45500 4013695.0
8.46500 3817905.0
8.47500 3244520.0
8.48500 2964820.0
8.49500 5566030.0
8.50500 6391145.0
8.51500 5677910.0
8.52500 5663925.0
8.53500 6684830.0
8.54500 6195355.0
8.55500 6377160.0
8.56500 7132350.0
8.57500 5398210.0
8.58500 4698960.0
8.59500 6600920.0
8.60500 4531140.0
8.61500 4782870.0
8.62500 4279410.0
8.63500 4097605.0
8.64500 4251440.0
8.65500 5160465.0
8.66500 4643020.0
8.67500 4167530.0
8.68500 4293395.0
8.69500 5621970.0
8.70500 5146480.0
8.71500 3300460.0
8.72500 4041665.0
8.73500 3901815.0
8.74500 3775950.0
8.75500 4377305.0
8.76500 4069635.0
8.77500 4335350.0
8.78500 4517155.0
8.79500 5426180.0
8.80500 5300315.0
8.81500 5915655.0
8.82500 4587080.0
8.83500 6293250.0
8.84500 6111445.0
8.85500 6125430.0
8.86500 5915655.0
8.87500 6433100.0
8.88500 5006630.0
8.89500 4657005.0
8.90500 4698960.0
8.91500 3747980.0
8.92500 4740915.0
8.93500 6153400.0
8.94500 5943625.0
8.95500 5901670.0
8.96500 6097460.0
8.97500 6586935.0
8.98500 6195355.0
8.99500 5873700.0
9.00500 4265425.0
9.01500 5062570.0
9.02500 4181515.0
9.03500 4531140.0
9.04500 4153545.0
9.05500 3873845.0
9.06500 5020615.0
9.07500 5552045.0
9.08500 5663925.0
9.09500 7118365.0
9.10500 5468135.0
9.11500 5691895.0
9.12500 4545125.0
9.13500 4992645.0
9.14500 3775950.0
9.15500 4782870.0
9.16500 6027535.0
9.17500 6237310.0
9.18500 4936705.0
9.19500 4503170.0
9.20500 4670990.0
9.21500 5426180.0
9.22500 4838810.0
9.23500 5510090.0
9.24500 5496105.0
9.25500 5048585.0
9.26500 6027535.0
9.27500 4027680.0
9.28500 4615050.0
9.29500 4027680.0
9.30500 3789935.0
9.31500 4796855.0
9.32500 4992645.0
9.33500 4377305.0
9.34500 3747980.0
9.35500 5188435.0
9.36500 4293395.0
9.37500 3482265.0
9.38500 2503315.0
9.39500 2237600.0
9.40500 1832035.0
9.41500 1985870.0
9.42500 1901960.0
9.43500 2824970.0
9.44500 3594145.0
9.45500 3971740.0
9.46500 3468280.0
9.47500 2964820.0
9.48500 3426325.0
9.49500 2852940.0
9.50500 4027680.0
9.51500 3887830.0
9.52500 3048730.0
9.53500 2167675.0
9.54500 2097750.0
9.55500 1971885.0
9.56500 2587225.0
9.57500 2587225.0
9.58500 3300460.0
9.59500 3692040.0
9.60500 2852940.0
9.61500 2908880.0
9.62500 3510235.0
9.63500 2685120.0
9.64500 2503315.0
9.65500 2181660.0
9.66500 2964820.0
9.67500 2363465.0
9.68500 1887975.0
9.69500 2069780.0
9.70500 2894895.0
9.71500 2055795.0
9.72500 2936850.0
9.73500 2908880.0
9.74500 2797000.0
9.75500 3146625.0
9.76500 3230535.0
9.77500 3132640.0
9.78500 3034745.0
9.79500 2111735.0
9.80500 2195645.0
9.81500 2797000.0
9.82500 2419405.0
9.83500 1943915.0
9.84500 1957900.0
9.85500 2265570.0
9.86500 1943915.0
9.87500 3230535.0
9.88500 3244520.0
9.89500 3636100.0
9.90500 3454295.0
9.91500 3286475.0
9.92500 2866925.0
9.93500 2587225.0
9.94500 3384370.0
9.95500 2615195.0
9.96500 2447375.0
9.97500 2880910.0
9.98500 2797000.0
9.99500 2531285.0
