0.00500 14367726.0
0.01500 15721672.0
0.02500 13575466.0
0.03500 10342558.0
0.04500 7030089.0
0.05500 4246387.0
0.06500 2834892.0
0.07500 2578215.0
0.08500 2797027.0
0.09500 3091044.0
0.10500 3400664.0
0.11500 3714686.0
0.12500 4001675.0
0.13500 4324541.0
0.14500 4642945.0
0.15500 4975341.0
0.16500 5274046.0
0.17500 5540559.0
0.18500 5909264.0
0.19500 6181210.0
0.20500 6486186.0
0.21500 6739854.0
0.22500 6981260.0
0.23500 7282775.0
0.24500 7567672.0
0.25500 7833807.0
0.26500 8134036.0
0.27500 8339534.0
0.28500 8631498.0
0.29500 8893695.0
0.30500 9128917.0
0.31500 9413702.0
0.32500 9618842.0
0.33500 9847752.0
0.34500 10102533.0
0.35500 10303314.0
0.36500 10494322.0
0.37500 10685206.0
0.38500 10898686.0
0.39500 11088901.0
0.40500 11215362.0
0.41500 11216621.0
0.42500 10788715.0
0.43500 9453169.0
0.44500 6990292.0
0.45500 4420789.0
0.46500 2573782.0
0.47500 1713409.0
0.48500 1385641.0
0.49500 1216324.0
0.50500 1120879.0
0.51500 1050339.0
0.52500 990582.0
0.53500 945864.0
0.54500 895811.0
0.55500 846380.0
0.56500 797075.0
0.57500 745021.0
0.58500 696571.0
0.59500 644523.0
0.60500 594679.0
0.61500 546376.0
0.62500 492563.0
0.63500 445091.0
0.64500 400837.0
0.65500 357073.0
0.66500 319889.0
0.67500 283108.0
0.68500 249529.0
0.69500 220481.0
0.70500 193832.0
0.71500 171289.0
0.72500 150626.0
0.73500 133635.0
0.74500 119529.0
0.75500 106896.0
0.76500 96973.0
0.77500 89187.0
0.78500 82725.0
0.79500 78201.0
0.80500 75193.0
0.81500 72672.0
0.82500 71780.0
0.83500 71427.0
0.84500 71615.0
0.85500 71477.0
0.86500 72391.0
0.87500 73129.0
0.88500 74348.0
0.89500 74102.0
0.90500 74660.0
0.91500 74055.0
0.92500 73663.0
0.93500 73139.0
0.94500 71963.0
0.95500 70058.0
0.96500 68104.0
0.97500 65769.0
0.98500 63440.0
0.99500 60423.0
1.00500 57862.0
1.01500 54577.0
1.02500 51310.0
1.03500 48469.0
1.04500 44295.0
1.05500 41201.0
1.06500 37030.0
1.07500 34281.0
1.08500 30962.0
1.09500 28130.0
1.10500 25512.0
1.11500 22566.0
1.12500 20089.0
1.13500 18193.0
1.14500 16341.0
1.15500 14449.0
1.16500 13117.0
1.17500 11913.0
1.18500 11073.0
1.19500 10261.0
1.20500 9650.0
1.21500 9622.0
1.22500 9276.0
1.23500 9427.0
1.24500 9601.0
1.25500 9845.0
1.26500 10115.0
1.27500 10458.0
1.28500 11042.0
1.29500 11661.0
1.30500 12048.0
1.31500 12384.0
1.32500 12974.0
1.33500 13642.0
1.34500 13956.0
1.35500 13973.0
1.36500 14156.0
1.37500 14466.0
1.38500 14322.0
1.39500 14241.0
1.40500 13861.0
1.41500 13515.0
1.42500 13449.0
1.43500 12950.0
1.44500 12709.0
1.45500 11946.0
1.46500 11389.0
1.47500 10810.0
1.48500 9997.0
1.49500 9226.0
1.50500 8642.0
1.51500 7944.0
1.52500 7229.0
1.53500 6462.0
1.54500 5882.0
1.55500 5176.0
1.56500 4645.0
1.57500 4128.0
1.58500 3714.0
1.59500 3279.0
1.60500 2856.0
1.61500 2572.0
1.62500 2293.0
1.63500 2140.0
1.64500 1949.0
1.65500 1767.0
1.66500 1835.0
1.67500 1790.0
1.68500 1850.0
1.69500 1943.0
1.70500 2102.0
1.71500 2332.0
1.72500 2369.0
1.73500 2619.0
1.74500 2747.0
1.75500 3027.0
1.76500 3160.0
1.77500 3281.0
1.78500 3546.0
1.79500 3800.0
1.80500 3805.0
1.81500 3954.0
1.82500 3903.0
1.83500 4045.0
1.84500 4218.0
1.85500 4092.0
1.86500 4113.0
1.87500 4053.0
1.88500 4080.0
1.89500 3957.0
1.90500 3841.0
1.91500 3694.0
1.92500 3498.0
1.93500 3326.0
1.94500 3247.0
1.95500 2940.0
1.96500 2790.0
1.97500 2515.0
1.98500 2309.0
1.99500 2025.0
2.00500 1941.0
2.01500 1734.0
2.02500 1490.0
2.03500 1354.0
2.04500 1114.0
2.05500 1057.0
2.06500 928.0
2.07500 717.0
2.08500 669.0
2.09500 575.0
2.10500 543.0
2.11500 500.0
2.12500 486.0
2.13500 523.0
2.14500 516.0
2.15500 560.0
2.16500 639.0
2.17500 698.0
2.18500 711.0
2.19500 847.0
2.20500 930.0
2.21500 990.0
2.22500 1021.0
2.23500 1126.0
2.24500 1182.0
2.25500 1197.0
2.26500 1363.0
2.27500 1410.0
2.28500 1432.0
2.29500 1428.0
2.30500 1378.0
2.31500 1505.0
2.32500 1557.0
2.33500 1556.0
2.34500 1519.0
2.35500 1527.0
2.36500 1526.0
2.37500 1407.0
2.38500 1349.0
2.39500 1239.0
2.40500 1266.0
2.41500 1161.0
2.42500 1007.0
2.43500 1022.0
2.44500 930.0
2.45500 794.0
2.46500 822.0
2.47500 682.0
2.48500 619.0
2.49500 566.0
2.50500 475.0
2.51500 450.0
2.52500 343.0
2.53500 369.0
2.54500 287.0
2.55500 292.0
2.56500 259.0
2.57500 167.0
2.58500 194.0
2.59500 179.0
2.60500 215.0
2.61500 200.0
2.62500 201.0
2.63500 225.0
2.64500 282.0
2.65500 336.0
2.66500 332.0
2.67500 387.0
2.68500 392.0
2.69500 427.0
2.70500 507.0
2.71500 545.0
2.72500 602.0
2.73500 583.0
2.74500 618.0
2.75500 606.0
2.76500 658.0
2.77500 698.0
2.78500 653.0
2.79500 679.0
2.80500 666.0
2.81500 643.0
2.82500 595.0
2.83500 597.0
2.84500 618.0
2.85500 612.0
2.86500 589.0
2.87500 594.0
2.88500 577.0
2.89500 468.0
2.90500 450.0
2.91500 379.0
2.92500 382.0
2.93500 397.0
2.94500 352.0
2.95500 367.0
2.96500 307.0
2.97500 300.0
2.98500 298.0
2.99500 219.0
3.00500 223.0
3.01500 205.0
3.02500 228.0
3.03500 198.0
3.04500 195.0
3.05500 196.0
3.06500 181.0
3.07500 160.0
3.08500 161.0
3.09500 145.0
3.10500 187.0
3.11500 205.0
3.12500 184.0
3.13500 227.0
3.14500 215.0
3.15500 230.0
3.16500 260.0
3.17500 320.0
3.18500 353.0
3.19500 356.0
3.20500 426.0
3.21500 403.0
3.22500 405.0
3.23500 415.0
3.24500 343.0
3.25500 362.0
3.26500 323.0
3.27500 351.0
3.28500 330.0
3.29500 357.0
3.30500 351.0
3.31500 398.0
3.32500 395.0
3.33500 361.0
3.34500 389.0
3.35500 435.0
3.36500 343.0
3.37500 301.0
3.38500 319.0
3.39500 265.0
3.40500 293.0
3.41500 265.0
3.42500 235.0
3.43500 193.0
3.44500 164.0
3.45500 143.0
3.46500 153.0
3.47500 112.0
3.48500 118.0
3.49500 116.0
3.50500 84.0
3.51500 68.0
3.52500 68.0
3.53500 96.0
3.54500 57.0
3.55500 101.0
3.56500 95.0
3.57500 80.0
3.58500 97.0
3.59500 77.0
3.60500 101.0
3.61500 138.0
3.62500 108.0
3.63500 130.0
3.64500 136.0
3.65500 132.0
3.66500 156.0
3.67500 246.0
3.68500 199.0
3.69500 214.0
3.70500 258.0
3.71500 222.0
3.72500 214.0
3.73500 227.0
3.74500 250.0
3.75500 183.0
3.76500 190.0
3.77500 198.0
3.78500 231.0
3.79500 199.0
3.80500 191.0
3.81500 201.0
3.82500 183.0
3.83500 167.0
3.84500 148.0
3.85500 140.0
3.86500 147.0
3.87500 147.0
3.88500 136.0
3.89500 148.0
3.90500 131.0
3.91500 135.0
3.92500 108.0
3.93500 129.0
3.94500 118.0
3.95500 111.0
3.96500 124.0
3.97500 146.0
3.98500 167.0
3.99500 176.0
4.00500 166.0
4.01500 148.0
4.02500 121.0
4.03500 130.0
4.04500 118.0
4.05500 130.0
4.06500 116.0
4.07500 119.0
4.08500 127.0
4.09500 121.0
4.10500 134.0
4.11500 161.0
4.12500 151.0
4.13500 116.0
4.14500 159.0
4.15500 170.0
4.16500 166.0
4.17500 155.0
4.18500 109.0
4.19500 116.0
4.20500 126.0
4.21500 133.0
4.22500 122.0
4.23500 118.0
4.24500 125.0
4.25500 112.0
4.26500 123.0
4.27500 108.0
4.28500 105.0
4.29500 126.0
4.30500 135.0
4.31500 124.0
4.32500 131.0
4.33500 111.0
4.34500 126.0
4.35500 130.0
4.36500 137.0
4.37500 75.0
4.38500 93.0
4.39500 129.0
4.40500 123.0
4.41500 86.0
4.42500 109.0
4.43500 103.0
4.44500 83.0
4.45500 94.0
4.46500 89.0
4.47500 91.0
4.48500 85.0
4.49500 84.0
4.50500 74.0
4.51500 88.0
4.52500 89.0
4.53500 90.0
4.54500 91.0
4.55500 97.0
4.56500 78.0
4.57500 50.0
4.58500 83.0
4.59500 87.0
4.60500 117.0
4.61500 153.0
4.62500 145.0
4.63500 156.0
4.64500 132.0
4.65500 98.0
4.66500 114.0
4.67500 106.0
4.68500 97.0
4.69500 86.0
4.70500 93.0
4.71500 100.0
4.72500 103.0
4.73500 115.0
4.74500 87.0
4.75500 78.0
4.76500 119.0
4.77500 87.0
4.78500 70.0
4.79500 66.0
4.80500 62.0
4.81500 66.0
4.82500 81.0
4.83500 88.0
4.84500 89.0
4.85500 107.0
4.86500 87.0
4.87500 79.0
4.88500 68.0
4.89500 119.0
4.90500 90.0
4.91500 96.0
4.92500 84.0
4.93500 100.0
4.94500 124.0
4.95500 78.0
4.96500 63.0
4.97500 87.0
4.98500 144.0
4.99500 166.0
5.00500 120.0
