0.00500 42212472.0
0.01500 44546424.0
0.02500 32431336.0
0.03500 19015208.0
0.04500 9987335.0
0.05500 5671133.0
0.06500 4609693.0
0.07500 4873712.0
0.08500 5384087.0
0.09500 5931110.0
0.10500 6506669.0
0.11500 7083196.0
0.12500 7625004.0
0.13500 8216876.0
0.14500 8727061.0
0.15500 9241286.0
0.16500 9781265.0
0.17500 10316523.0
0.18500 10809566.0
0.19500 11293740.0
0.20500 11823231.0
0.21500 12226755.0
0.22500 12709319.0
0.23500 13345461.0
0.24500 13796762.0
0.25500 14340932.0
0.26500 14769214.0
0.27500 15226922.0
0.28500 15704641.0
0.29500 16006611.0
0.30500 16275174.0
0.31500 16724683.0
0.32500 17007660.0
0.33500 17391896.0
0.34500 17797456.0
0.35500 18267090.0
0.36500 18615158.0
0.37500 18995252.0
0.38500 19416660.0
0.39500 19644288.0
0.40500 19967994.0
0.41500 20332112.0
0.42500 20631076.0
0.43500 20854472.0
0.44500 21081528.0
0.45500 21548576.0
0.46500 21820126.0
0.47500 22097156.0
0.48500 22417424.0
0.49500 22472302.0
0.50500 22725396.0
0.51500 22970432.0
0.52500 23179212.0
0.53500 23455216.0
0.54500 23671676.0
0.55500 23860768.0
0.56500 24003068.0
0.57500 24062996.0
0.58500 24316788.0
0.59500 24340348.0
0.60500 24329388.0
0.61500 24381864.0
0.62500 24288398.0
0.63500 24334640.0
0.64500 23914904.0
0.65500 23713052.0
0.66500 23022618.0
0.67500 21466892.0
0.68500 19455398.0
0.69500 16713718.0
0.70500 13974004.0
0.71500 11467494.0
0.72500 9634091.0
0.73500 8276103.0
0.74500 7171614.0
0.75500 6327452.0
0.76500 5643487.0
0.77500 5057377.0
0.78500 4565035.0
0.79500 4165335.0
0.80500 3788491.0
0.81500 3485391.0
0.82500 3206502.0
0.83500 2964145.0
0.84500 2736997.0
0.85500 2531488.0
0.86500 2373400.0
0.87500 2228291.0
0.88500 2092579.0
0.89500 1936856.0
0.90500 1817481.0
0.91500 1712858.0
0.92500 1605067.0
0.93500 1520947.0
0.94500 1440193.0
0.95500 1366201.0
0.96500 1295355.0
0.97500 1229856.0
0.98500 1173148.0
0.99500 1127814.0
1.00500 1067654.0
1.01500 1018042.0
1.02500 971219.0
1.03500 919853.0
1.04500 875548.0
1.05500 837171.0
1.06500 800567.0
1.07500 769602.0
1.08500 736238.0
1.09500 708576.0
1.10500 678313.0
1.11500 643460.0
1.12500 617669.0
1.13500 592685.0
1.14500 571729.0
1.15500 552993.0
1.16500 528981.0
1.17500 508265.0
1.18500 493734.0
1.19500 479768.0
1.20500 464240.0
1.21500 450882.0
1.22500 434457.0
1.23500 418059.0
1.24500 405634.0
1.25500 393173.0
1.26500 381166.0
1.27500 372784.0
1.28500 361557.0
1.29500 350472.0
1.30500 338962.0
1.31500 330950.0
1.32500 321362.0
1.33500 313765.0
1.34500 306956.0
1.35500 300665.0
1.36500 291492.0
1.37500 284041.0
1.38500 277116.0
1.39500 269966.0
1.40500 266815.0
1.41500 259111.0
1.42500 254809.0
1.43500 249960.0
1.44500 244869.0
1.45500 241518.0
1.46500 240801.0
1.47500 235672.0
1.48500 231443.0
1.49500 228763.0
1.50500 226844.0
1.51500 225899.0
1.52500 221747.0
1.53500 221077.0
1.54500 218375.0
1.55500 216921.0
1.56500 218363.0
1.57500 217418.0
1.58500 217179.0
1.59500 215786.0
1.60500 214924.0
1.61500 214622.0
1.62500 214438.0
1.63500 214393.0
1.64500 219674.0
1.65500 222043.0
1.66500 228639.0
1.67500 232184.0
1.68500 240620.0
1.69500 246012.0
1.70500 253153.0
1.71500 265691.0
1.72500 278450.0
1.73500 292427.0
1.74500 308035.0
1.75500 322525.0
1.76500 338663.0
1.77500 360036.0
1.78500 385239.0
1.79500 418927.0
1.80500 466963.0
1.81500 523767.0
1.82500 600775.0
1.83500 696140.0
1.84500 841264.0
1.85500 1051241.0
1.86500 1372275.0
1.87500 1939668.0
1.88500 2964939.0
1.89500 5025528.0
1.90500 8648919.0
1.91500 13784050.0
1.92500 19252692.0
1.93500 21651676.0
1.94500 19289588.0
1.95500 12496255.0
1.96500 5788402.0
1.97500 2308771.0
1.98500 1191967.0
1.99500 729202.0
2.00500 490367.0
2.01500 355278.0
2.02500 266833.0
2.03500 205451.0
2.04500 162674.0
2.05500 130461.0
2.06500 105948.0
2.07500 87683.0
2.08500 72872.0
2.09500 61977.0
2.10500 53572.0
2.11500 45958.0
2.12500 39695.0
2.13500 34225.0
2.14500 29676.0
2.15500 26357.0
2.16500 23349.0
2.17500 20747.0
2.18500 18718.0
2.19500 17623.0
2.20500 16351.0
2.21500 14586.0
2.22500 13257.0
2.23500 11759.0
2.24500 10806.0
2.25500 9762.0
2.26500 9015.0
2.27500 8535.0
2.28500 8074.0
2.29500 7730.0
2.30500 7069.0
2.31500 6820.0
2.32500 6382.0
2.33500 5829.0
2.34500 5461.0
2.35500 5263.0
2.36500 5010.0
2.37500 4481.0
2.38500 4454.0
2.39500 4023.0
2.40500 3687.0
2.41500 3536.0
2.42500 3358.0
2.43500 3325.0
2.44500 3209.0
2.45500 3091.0
2.46500 2988.0
2.47500 3034.0
2.48500 2693.0
2.49500 2597.0
2.50500 2523.0
2.51500 2440.0
2.52500 2325.0
2.53500 2316.0
2.54500 2356.0
2.55500 2411.0
2.56500 2235.0
2.57500 2235.0
2.58500 2120.0
2.59500 2076.0
2.60500 2003.0
2.61500 1885.0
2.62500 1871.0
2.63500 1879.0
2.64500 1820.0
2.65500 1757.0
2.66500 1697.0
2.67500 1602.0
2.68500 1520.0
2.69500 1487.0
2.70500 1462.0
2.71500 1277.0
2.72500 1258.0
2.73500 1332.0
2.74500 1325.0
2.75500 1228.0
2.76500 1186.0
2.77500 1309.0
2.78500 1298.0
2.79500 1297.0
2.80500 1257.0
2.81500 1070.0
2.82500 1022.0
2.83500 1006.0
2.84500 924.0
2.85500 926.0
2.86500 911.0
2.87500 893.0
2.88500 950.0
2.89500 852.0
2.90500 968.0
2.91500 948.0
2.92500 1011.0
2.93500 942.0
2.94500 905.0
2.95500 843.0
2.96500 935.0
2.97500 828.0
2.98500 833.0
2.99500 869.0
3.00500 778.0
3.01500 724.0
3.02500 684.0
3.03500 700.0
3.04500 703.0
3.05500 643.0
3.06500 672.0
3.07500 638.0
3.08500 651.0
3.09500 715.0
3.10500 662.0
3.11500 701.0
3.12500 713.0
3.13500 721.0
3.14500 660.0
3.15500 601.0
3.16500 606.0
3.17500 621.0
3.18500 567.0
3.19500 514.0
3.20500 586.0
3.21500 589.0
3.22500 542.0
3.23500 593.0
3.24500 577.0
3.25500 571.0
3.26500 514.0
3.27500 622.0
3.28500 568.0
3.29500 527.0
3.30500 649.0
3.31500 693.0
3.32500 697.0
3.33500 641.0
3.34500 651.0
3.35500 655.0
3.36500 680.0
3.37500 692.0
3.38500 644.0
3.39500 595.0
3.40500 591.0
3.41500 593.0
3.42500 619.0
3.43500 564.0
3.44500 563.0
3.45500 548.0
3.46500 551.0
3.47500 606.0
3.48500 677.0
3.49500 805.0
3.50500 977.0
3.51500 1122.0
3.52500 1212.0
3.53500 1286.0
3.54500 1450.0
3.55500 1757.0
3.56500 2064.0
3.57500 2777.0
3.58500 3667.0
3.59500 4909.0
3.60500 7078.0
3.61500 10662.0
3.62500 17676.0
3.63500 31792.0
3.64500 62449.0
3.65500 121276.0
3.66500 220733.0
3.67500 348993.0
3.68500 430255.0
3.69500 397878.0
3.70500 266071.0
3.71500 144870.0
3.72500 71405.0
3.73500 37003.0
3.74500 22339.0
3.75500 14940.0
3.76500 11061.0
3.77500 8651.0
3.78500 7092.0
3.79500 5862.0
3.80500 5148.0
3.81500 4373.0
3.82500 3875.0
3.83500 3545.0
3.84500 3228.0
3.85500 2858.0
3.86500 2651.0
3.87500 2457.0
3.88500 2337.0
3.89500 2070.0
3.90500 1945.0
3.91500 1758.0
3.92500 1751.0
3.93500 1682.0
3.94500 1502.0
3.95500 1383.0
3.96500 1360.0
3.97500 1303.0
3.98500 1284.0
3.99500 1250.0
4.00500 1263.0
4.01500 1180.0
4.02500 1178.0
4.03500 1224.0
4.04500 1226.0
4.05500 1219.0
4.06500 1167.0
4.07500 1134.0
4.08500 1068.0
4.09500 1156.0
4.10500 1034.0
4.11500 984.0
4.12500 986.0
4.13500 996.0
4.14500 1038.0
4.15500 920.0
4.16500 925.0
4.17500 875.0
4.18500 808.0
4.19500 812.0
4.20500 746.0
4.21500 746.0
4.22500 718.0
4.23500 713.0
4.24500 779.0
4.25500 682.0
4.26500 735.0
4.27500 735.0
4.28500 641.0
4.29500 636.0
4.30500 607.0
4.31500 582.0
4.32500 638.0
4.33500 585.0
4.34500 587.0
4.35500 608.0
4.36500 629.0
4.37500 587.0
4.38500 595.0
4.39500 598.0
4.40500 561.0
4.41500 592.0
4.42500 611.0
4.43500 596.0
4.44500 582.0
4.45500 616.0
4.46500 536.0
4.47500 537.0
4.48500 504.0
4.49500 538.0
4.50500 541.0
4.51500 496.0
4.52500 551.0
4.53500 611.0
4.54500 574.0
4.55500 582.0
4.56500 551.0
4.57500 515.0
4.58500 540.0
4.59500 549.0
4.60500 517.0
4.61500 493.0
4.62500 499.0
4.63500 493.0
4.64500 464.0
4.65500 445.0
4.66500 415.0
4.67500 401.0
4.68500 423.0
4.69500 410.0
4.70500 402.0
4.71500 430.0
4.72500 437.0
4.73500 447.0
4.74500 398.0
4.75500 424.0
4.76500 414.0
4.77500 364.0
4.78500 354.0
4.79500 344.0
4.80500 354.0
4.81500 385.0
4.82500 387.0
4.83500 329.0
4.84500 371.0
4.85500 403.0
4.86500 382.0
4.87500 379.0
4.88500 413.0
4.89500 376.0
4.90500 456.0
4.91500 426.0
4.92500 420.0
4.93500 474.0
4.94500 427.0
4.95500 433.0
4.96500 370.0
4.97500 318.0
4.98500 346.0
4.99500 384.0
5.00500 350.0
5.01500 387.0
5.02500 448.0
5.03500 440.0
5.04500 429.0
5.05500 455.0
5.06500 446.0
5.07500 513.0
5.08500 495.0
5.09500 505.0
5.10500 474.0
5.11500 500.0
5.12500 475.0
5.13500 454.0
5.14500 422.0
5.15500 417.0
5.16500 379.0
5.17500 489.0
5.18500 487.0
5.19500 486.0
5.20500 520.0
5.21500 579.0
5.22500 622.0
5.23500 572.0
5.24500 553.0
5.25500 580.0
5.26500 615.0
5.27500 682.0
5.28500 684.0
5.29500 733.0
5.30500 751.0
5.31500 922.0
5.32500 973.0
5.33500 1039.0
5.34500 1314.0
5.35500 1545.0
5.36500 1954.0
5.37500 2604.0
5.38500 3312.0
5.39500 4747.0
5.40500 7515.0
5.41500 12669.0
5.42500 22447.0
5.43500 38131.0
5.44500 60082.0
5.45500 85307.0
5.46500 105579.0
5.47500 118199.0
5.48500 116276.0
5.49500 100334.0
5.50500 74177.0
5.51500 48062.0
5.52500 27685.0
5.53500 16254.0
5.54500 10223.0
5.55500 6651.0
5.56500 4736.0
5.57500 3691.0
5.58500 2788.0
5.59500 2217.0
5.60500 1762.0
5.61500 1304.0
5.62500 1106.0
5.63500 1012.0
5.64500 884.0
5.65500 745.0
5.66500 682.0
5.67500 620.0
5.68500 542.0
5.69500 476.0
5.70500 435.0
5.71500 361.0
5.72500 309.0
5.73500 262.0
5.74500 258.0
5.75500 242.0
5.76500 227.0
5.77500 184.0
5.78500 200.0
5.79500 166.0
5.80500 194.0
5.81500 211.0
5.82500 197.0
5.83500 243.0
5.84500 186.0
5.85500 188.0
5.86500 179.0
5.87500 189.0
5.88500 206.0
5.89500 201.0
5.90500 237.0
5.91500 185.0
5.92500 205.0
5.93500 178.0
5.94500 167.0
5.95500 179.0
5.96500 172.0
5.97500 196.0
5.98500 161.0
5.99500 152.0
6.00500 124.0
6.01500 122.0
6.02500 135.0
6.03500 155.0
6.04500 118.0
6.05500 105.0
6.06500 145.0
6.07500 127.0
6.08500 157.0
6.09500 150.0
6.10500 152.0
6.11500 142.0
6.12500 109.0
6.13500 106.0
6.14500 138.0
6.15500 109.0
6.16500 157.0
6.17500 137.0
6.18500 157.0
6.19500 158.0
6.20500 107.0
6.21500 122.0
6.22500 112.0
6.23500 123.0
6.24500 91.0
6.25500 80.0
6.26500 86.0
6.27500 82.0
6.28500 104.0
6.29500 119.0
6.30500 122.0
6.31500 82.0
6.32500 84.0
6.33500 106.0
6.34500 114.0
6.35500 105.0
6.36500 107.0
6.37500 116.0
6.38500 128.0
6.39500 110.0
6.40500 104.0
6.41500 84.0
6.42500 85.0
6.43500 82.0
6.44500 77.0
6.45500 94.0
6.46500 116.0
6.47500 77.0
6.48500 84.0
6.49500 97.0
6.50500 93.0
6.51500 71.0
6.52500 108.0
6.53500 110.0
6.54500 105.0
6.55500 114.0
6.56500 116.0
6.57500 112.0
6.58500 109.0
6.59500 121.0
6.60500 108.0
6.61500 89.0
6.62500 111.0
6.63500 101.0
6.64500 158.0
6.65500 151.0
6.66500 129.0
6.67500 131.0
6.68500 155.0
6.69500 145.0
6.70500 151.0
6.71500 103.0
6.72500 100.0
6.73500 93.0
6.74500 92.0
6.75500 118.0
6.76500 134.0
6.77500 101.0
6.78500 136.0
6.79500 118.0
6.80500 127.0
6.81500 124.0
6.82500 136.0
6.83500 115.0
6.84500 125.0
6.85500 105.0
6.86500 116.0
6.87500 127.0
6.88500 104.0
6.89500 126.0
6.90500 117.0
6.91500 124.0
6.92500 138.0
6.93500 148.0
6.94500 174.0
6.95500 152.0
6.96500 154.0
6.97500 157.0
6.98500 161.0
6.99500 163.0
7.00500 136.0
7.01500 138.0
7.02500 148.0
7.03500 147.0
7.04500 148.0
7.05500 150.0
7.06500 164.0
7.07500 181.0
7.08500 198.0
7.09500 206.0
7.10500 223.0
7.11500 276.0
7.12500 318.0
7.13500 378.0
7.14500 419.0
7.15500 521.0
7.16500 625.0
7.17500 817.0
7.18500 1019.0
7.19500 1470.0
7.20500 2245.0
7.21500 3644.0
7.22500 5908.0
7.23500 8900.0
7.24500 12645.0
7.25500 16022.0
7.26500 18549.0
7.27500 20736.0
7.28500 21818.0
7.29500 21528.0
7.30500 19420.0
7.31500 15380.0
7.32500 10697.0
7.33500 7036.0
7.34500 4615.0
7.35500 3156.0
7.36500 2122.0
7.37500 1653.0
7.38500 1209.0
7.39500 972.0
7.40500 816.0
7.41500 722.0
7.42500 640.0
7.43500 555.0
7.44500 445.0
7.45500 392.0
7.46500 343.0
7.47500 312.0
7.48500 237.0
7.49500 214.0
7.50500 228.0
7.51500 176.0
7.52500 209.0
7.53500 184.0
7.54500 207.0
7.55500 137.0
7.56500 125.0
7.57500 144.0
7.58500 134.0
7.59500 131.0
7.60500 120.0
7.61500 147.0
7.62500 148.0
7.63500 143.0
7.64500 149.0
7.65500 136.0
7.66500 161.0
7.67500 135.0
7.68500 117.0
7.69500 96.0
7.70500 112.0
7.71500 107.0
7.72500 103.0
7.73500 129.0
7.74500 98.0
7.75500 86.0
7.76500 92.0
7.77500 90.0
7.78500 92.0
7.79500 110.0
7.80500 107.0
7.81500 122.0
7.82500 118.0
7.83500 137.0
7.84500 122.0
7.85500 119.0
7.86500 134.0
7.87500 153.0
7.88500 155.0
7.89500 129.0
7.90500 118.0
7.91500 131.0
7.92500 131.0
7.93500 155.0
7.94500 124.0
7.95500 139.0
7.96500 137.0
7.97500 177.0
7.98500 111.0
7.99500 117.0
8.00500 94.0
8.01500 98.0
8.02500 108.0
8.03500 70.0
8.04500 106.0
8.05500 76.0
8.06500 73.0
8.07500 82.0
8.08500 78.0
8.09500 64.0
8.10500 84.0
8.11500 58.0
8.12500 78.0
8.13500 53.0
8.14500 88.0
8.15500 72.0
8.16500 73.0
8.17500 82.0
8.18500 98.0
8.19500 81.0
8.20500 77.0
8.21500 94.0
8.22500 100.0
8.23500 102.0
8.24500 90.0
8.25500 89.0
8.26500 77.0
8.27500 88.0
8.28500 69.0
8.29500 86.0
8.30500 95.0
8.31500 102.0
8.32500 89.0
8.33500 97.0
8.34500 77.0
8.35500 67.0
8.36500 102.0
8.37500 85.0
8.38500 95.0
8.39500 108.0
8.40500 102.0
8.41500 81.0
8.42500 66.0
8.43500 91.0
8.44500 105.0
8.45500 99.0
8.46500 99.0
8.47500 107.0
8.48500 73.0
8.49500 107.0
8.50500 93.0
8.51500 97.0
8.52500 108.0
8.53500 92.0
8.54500 88.0
8.55500 92.0
8.56500 110.0
8.57500 64.0
8.58500 67.0
8.59500 65.0
8.60500 69.0
8.61500 47.0
8.62500 60.0
8.63500 63.0
8.64500 65.0
8.65500 78.0
8.66500 67.0
8.67500 68.0
8.68500 65.0
8.69500 79.0
8.70500 113.0
8.71500 77.0
8.72500 120.0
8.73500 105.0
8.74500 120.0
8.75500 123.0
8.76500 130.0
8.77500 107.0
8.78500 108.0
8.79500 79.0
8.80500 81.0
8.81500 80.0
8.82500 92.0
8.83500 80.0
8.84500 84.0
8.85500 78.0
8.86500 92.0
8.87500 96.0
8.88500 98.0
8.89500 68.0
8.90500 84.0
8.91500 67.0
8.92500 87.0
8.93500 86.0
8.94500 78.0
8.95500 101.0
8.96500 81.0
8.97500 111.0
8.98500 115.0
8.99500 161.0
9.00500 223.0
9.01500 304.0
9.02500 420.0
9.03500 614.0
9.04500 787.0
9.05500 977.0
9.06500 1021.0
9.07500 1026.0
9.08500 1104.0
9.09500 1188.0
9.10500 1196.0
9.11500 1160.0
9.12500 1039.0
9.13500 825.0
9.14500 594.0
9.15500 410.0
9.16500 331.0
9.17500 254.0
9.18500 258.0
9.19500 233.0
9.20500 178.0
9.21500 206.0
9.22500 190.0
9.23500 189.0
9.24500 169.0
9.25500 201.0
9.26500 190.0
9.27500 137.0
9.28500 185.0
9.29500 110.0
9.30500 134.0
9.31500 135.0
9.32500 145.0
9.33500 149.0
9.34500 110.0
9.35500 89.0
9.36500 78.0
9.37500 93.0
9.38500 99.0
9.39500 119.0
9.40500 104.0
9.41500 134.0
9.42500 130.0
9.43500 87.0
9.44500 101.0
9.45500 76.0
9.46500 89.0
9.47500 96.0
9.48500 89.0
9.49500 123.0
9.50500 123.0
9.51500 107.0
9.52500 115.0
9.53500 124.0
9.54500 89.0
9.55500 80.0
9.56500 67.0
9.57500 76.0
9.58500 47.0
9.59500 75.0
9.60500 76.0
9.61500 93.0
9.62500 89.0
9.63500 78.0
9.64500 89.0
9.65500 85.0
9.66500 86.0
9.67500 95.0
9.68500 85.0
9.69500 89.0
9.70500 62.0
9.71500 67.0
9.72500 65.0
9.73500 96.0
9.74500 95.0
9.75500 82.0
9.76500 92.0
9.77500 79.0
9.78500 79.0
9.79500 76.0
9.80500 83.0
9.81500 77.0
9.82500 90.0
9.83500 98.0
9.84500 78.0
9.85500 94.0
9.86500 96.0
9.87500 84.0
9.88500 83.0
9.89500 64.0
9.90500 79.0
9.91500 78.0
9.92500 83.0
9.93500 108.0
9.94500 101.0
9.95500 92.0
9.96500 119.0
9.97500 77.0
9.98500 105.0
9.99500 82.0
10.00500 79.0
10.01500 80.0
10.02500 58.0
10.03500 66.0
10.04500 85.0
10.05500 73.0
10.06500 105.0
10.07500 90.0
10.08500 107.0
10.09500 112.0
10.10500 116.0
10.11500 76.0
10.12500 74.0
10.13500 64.0
10.14500 64.0
10.15500 63.0
10.16500 98.0
10.17500 78.0
10.18500 100.0
10.19500 73.0
10.20500 80.0
10.21500 91.0
10.22500 85.0
10.23500 121.0
10.24500 130.0
10.25500 167.0
10.26500 195.0
10.27500 231.0
10.28500 187.0
10.29500 140.0
10.30500 117.0
10.31500 90.0
10.32500 91.0
10.33500 108.0
10.34500 92.0
10.35500 98.0
10.36500 114.0
10.37500 134.0
10.38500 109.0
10.39500 98.0
10.40500 77.0
10.41500 79.0
10.42500 75.0
10.43500 119.0
10.44500 121.0
10.45500 90.0
10.46500 70.0
10.47500 90.0
10.48500 71.0
10.49500 71.0
10.50500 84.0
10.51500 49.0
10.52500 62.0
10.53500 93.0
10.54500 98.0
10.55500 95.0
10.56500 72.0
10.57500 75.0
10.58500 114.0
10.59500 78.0
10.60500 68.0
10.61500 47.0
10.62500 73.0
10.63500 68.0
10.64500 77.0
10.65500 51.0
10.66500 68.0
10.67500 68.0
10.68500 57.0
10.69500 78.0
10.70500 56.0
10.71500 57.0
10.72500 68.0
10.73500 60.0
10.74500 89.0
10.75500 106.0
10.76500 103.0
10.77500 125.0
10.78500 130.0
10.79500 136.0
10.80500 162.0
10.81500 220.0
10.82500 295.0
10.83500 338.0
10.84500 433.0
10.85500 553.0
10.86500 606.0
10.87500 684.0
10.88500 733.0
10.89500 704.0
10.90500 808.0
10.91500 890.0
10.92500 938.0
10.93500 873.0
10.94500 826.0
10.95500 632.0
10.96500 491.0
10.97500 354.0
10.98500 287.0
10.99500 233.0
11.00500 168.0
11.01500 149.0
11.02500 142.0
11.03500 117.0
11.04500 113.0
11.05500 87.0
11.06500 95.0
11.07500 101.0
11.08500 86.0
11.09500 97.0
11.10500 108.0
11.11500 114.0
11.12500 85.0
11.13500 98.0
11.14500 122.0
11.15500 84.0
11.16500 87.0
11.17500 82.0
11.18500 84.0
11.19500 76.0
11.20500 66.0
11.21500 64.0
11.22500 63.0
11.23500 73.0
11.24500 61.0
11.25500 75.0
11.26500 55.0
11.27500 66.0
11.28500 74.0
11.29500 49.0
11.30500 63.0
11.31500 85.0
11.32500 94.0
11.33500 79.0
11.34500 55.0
11.35500 60.0
11.36500 54.0
11.37500 72.0
11.38500 61.0
11.39500 58.0
11.40500 67.0
11.41500 59.0
11.42500 74.0
11.43500 59.0
11.44500 47.0
11.45500 88.0
11.46500 103.0
11.47500 78.0
11.48500 62.0
11.49500 62.0
11.50500 65.0
11.51500 66.0
11.52500 43.0
11.53500 63.0
11.54500 61.0
11.55500 50.0
11.56500 53.0
11.57500 37.0
11.58500 63.0
11.59500 67.0
11.60500 72.0
11.61500 57.0
11.62500 80.0
11.63500 97.0
11.64500 105.0
11.65500 89.0
11.66500 54.0
11.67500 61.0
11.68500 78.0
11.69500 60.0
11.70500 58.0
11.71500 69.0
11.72500 72.0
11.73500 54.0
11.74500 57.0
11.75500 46.0
11.76500 51.0
11.77500 59.0
11.78500 72.0
11.79500 51.0
11.80500 74.0
11.81500 77.0
11.82500 57.0
11.83500 79.0
11.84500 78.0
11.85500 95.0
11.86500 75.0
11.87500 55.0
11.88500 69.0
11.89500 58.0
11.90500 60.0
11.91500 53.0
11.92500 48.0
11.93500 44.0
11.94500 36.0
11.95500 37.0
11.96500 49.0
11.97500 49.0
11.98500 32.0
11.99500 44.0
