0.00500 481174355968.0
0.01500 516381573120.0
0.02500 385086881792.0
0.03500 226096185344.0
0.04500 120675811328.0
0.05500 73287933952.0
0.06500 66593857536.0
0.07500 74913660928.0
0.08500 83251765248.0
0.09500 94618918912.0
0.10500 105151651840.0
0.11500 113515798528.0
0.12500 123592212480.0
0.13500 131519987712.0
0.14500 141788200960.0
0.15500 152450482176.0
0.16500 159617482752.0
0.17500 168467038208.0
0.18500 175387000832.0
0.19500 185039962112.0
0.20500 194248163328.0
0.21500 199399014400.0
0.22500 208473325568.0
0.23500 213690466304.0
0.24500 222098882560.0
0.25500 232225046528.0
0.26500 237484687360.0
0.27500 244832501760.0
0.28500 249265815552.0
0.29500 254996512768.0
0.30500 266720198656.0
0.31500 270060060672.0
0.32500 275620298752.0
0.33500 281816203264.0
0.34500 286336450560.0
0.35500 294967377920.0
0.36500 297618538496.0
0.37500 301784694784.0
0.38500 308718239744.0
0.39500 310318465024.0
0.40500 319242960896.0
0.41500 321485307904.0
0.42500 323032907776.0
0.43500 326352764928.0
0.44500 328541536256.0
0.45500 334629240832.0
0.46500 340078526464.0
0.47500 340411285504.0
0.48500 344301273088.0
0.49500 343412342784.0
0.50500 348360441856.0
0.51500 352365903872.0
0.52500 350389338112.0
0.53500 353458454528.0
0.54500 353169604608.0
0.55500 354076557312.0
0.56500 356951785472.0
0.57500 353865170944.0
0.58500 355740188672.0
0.59500 353836236800.0
0.60500 353031880704.0
0.61500 352819707904.0
0.62500 346877755392.0
0.63500 344110006272.0
0.64500 338226446336.0
0.65500 331224350720.0
0.66500 321876033536.0
0.67500 304366419968.0
0.68500 278417473536.0
0.69500 247455481856.0
0.70500 209562304512.0
0.71500 176024715264.0
0.72500 145372741632.0
0.73500 123202994176.0
0.74500 107000832000.0
0.75500 93704814592.0
0.76500 83852525568.0
0.77500 75321352192.0
0.78500 67881385984.0
0.79500 61239754752.0
0.80500 54795689984.0
0.81500 49813282816.0
0.82500 44702158848.0
0.83500 40661680128.0
0.84500 37875003392.0
0.85500 35143786496.0
0.86500 32975609856.0
0.87500 30888865792.0
0.88500 28855572480.0
0.89500 27338870784.0
0.90500 25526765568.0
0.91500 23940808704.0
0.92500 22832218112.0
0.93500 21274177536.0
0.94500 20060055552.0
0.95500 18631991296.0
0.96500 17241393152.0
0.97500 16256024576.0
0.98500 15330244608.0
0.99500 14584564736.0
1.00500 14010089472.0
1.01500 13450185728.0
1.02500 13124251648.0
1.03500 12493946880.0
1.04500 11995158528.0
1.05500 11485096960.0
1.06500 10950283264.0
1.07500 10562338816.0
1.08500 10065395712.0
1.09500 9642629120.0
1.10500 9318667264.0
1.11500 8848603136.0
1.12500 8556106752.0
1.13500 8199489536.0
1.14500 7812370432.0
1.15500 7554039808.0
1.16500 7120840192.0
1.17500 6868033536.0
1.18500 6586907136.0
1.19500 6286173696.0
1.20500 6137247232.0
1.21500 6121248256.0
1.22500 5908886016.0
1.23500 5896663552.0
1.24500 5797663744.0
1.25500 5699950592.0
1.26500 5662778368.0
1.27500 5541682176.0
1.28500 5314244096.0
1.29500 5148465664.0
1.30500 4939628032.0
1.31500 4670109184.0
1.32500 4558942208.0
1.33500 4383528448.0
1.34500 4139629824.0
1.35500 4075634688.0
1.36500 3966257920.0
1.37500 3804311552.0
1.38500 3842490624.0
1.39500 3759615488.0
1.40500 3718751232.0
1.41500 3760538624.0
1.42500 3763433472.0
1.43500 3736260608.0
1.44500 3790172672.0
1.45500 3764650240.0
1.46500 3740651776.0
1.47500 3784480768.0
1.48500 3774579456.0
1.49500 3576132352.0
1.50500 3528177664.0
1.51500 3461651200.0
1.52500 3260155136.0
1.53500 3202746880.0
1.54500 3144443392.0
1.55500 2976595456.0
1.56500 2929619712.0
1.57500 2919858176.0
1.58500 2841905920.0
1.59500 2856086528.0
1.60500 2927480064.0
1.61500 2917914368.0
1.62500 2966176512.0
1.63500 3159728896.0
1.64500 3240184576.0
1.65500 3302026240.0
1.66500 3593921280.0
1.67500 3679789056.0
1.68500 3716443904.0
1.69500 3905171456.0
1.70500 3920624896.0
1.71500 3751588096.0
1.72500 3757461760.0
1.73500 3765125632.0
1.74500 3592326912.0
1.75500 3506361088.0
1.76500 3586607104.0
1.77500 3512906240.0
1.78500 3611877888.0
1.79500 4066334464.0
1.80500 4525182464.0
1.81500 6133639168.0
1.82500 10563023872.0
1.83500 20457496576.0
1.84500 41000550400.0
1.85500 70221807616.0
1.86500 96943980544.0
1.87500 107857690624.0
1.88500 96454459392.0
1.89500 69877506048.0
1.90500 46083526656.0
1.91500 33010501632.0
1.92500 25784004608.0
1.93500 18694756352.0
1.94500 14143464448.0
1.95500 11453211648.0
1.96500 8986355712.0
1.97500 7241320960.0
1.98500 5975692800.0
1.99500 5003553280.0
2.00500 4244601344.0
2.01500 3559224576.0
2.02500 3154750208.0
2.03500 2658772224.0
2.04500 2324642560.0
2.05500 2148501504.0
2.06500 1855851392.0
2.07500 1726825856.0
2.08500 1591814656.0
2.09500 1453740800.0
2.10500 1389311872.0
2.11500 1301765760.0
2.12500 1216177536.0
2.13500 1111401984.0
2.14500 1034190720.0
2.15500 1008024832.0
2.16500 892858368.0
2.17500 829170624.0
2.18500 793033408.0
2.19500 721052608.0
2.20500 696257216.0
2.21500 670608704.0
2.22500 614780608.0
2.23500 582419328.0
2.24500 544729728.0
2.25500 531402016.0
2.26500 509179872.0
2.27500 480468672.0
2.28500 481433632.0
2.29500 452624512.0
2.30500 456792064.0
2.31500 466064096.0
2.32500 439534560.0
2.33500 419550016.0
2.34500 407159296.0
2.35500 393733696.0
2.36500 370085056.0
2.37500 338842560.0
2.38500 323431104.0
2.39500 300747424.0
2.40500 272232000.0
2.41500 277028864.0
2.42500 247828192.0
2.43500 240374176.0
2.44500 227899552.0
2.45500 220683296.0
2.46500 211131552.0
2.47500 202083248.0
2.48500 203341904.0
2.49500 191944128.0
2.50500 185357184.0
2.51500 201118288.0
2.52500 187650736.0
2.53500 180182736.0
2.54500 194307584.0
2.55500 189552688.0
2.56500 188573744.0
2.57500 179707248.0
2.58500 174896416.0
2.59500 168239552.0
2.60500 159876512.0
2.61500 156324336.0
2.62500 145513920.0
2.63500 130899600.0
2.64500 131724712.0
2.65500 128466208.0
2.66500 122774312.0
2.67500 121096112.0
2.68500 120900328.0
2.69500 117501968.0
2.70500 111656240.0
2.71500 109950072.0
2.72500 109027056.0
2.73500 100873808.0
2.74500 109698336.0
2.75500 102174408.0
2.76500 96832144.0
2.77500 99559216.0
2.78500 94776344.0
2.79500 97139808.0
2.80500 95657400.0
2.81500 96384624.0
2.82500 96062968.0
2.83500 88692872.0
2.84500 88776784.0
2.85500 89909568.0
2.86500 81476608.0
2.87500 78399912.0
2.88500 76204264.0
2.89500 69421536.0
2.90500 63645736.0
2.91500 62009488.0
2.92500 59562116.0
2.93500 57590232.0
2.94500 55884060.0
2.95500 56289624.0
2.96500 54499544.0
2.97500 55324660.0
2.98500 55366616.0
2.99500 54052024.0
3.00500 55282704.0
3.01500 53520596.0
3.02500 56163760.0
3.03500 54303756.0
3.04500 52625556.0
3.05500 54513528.0
3.06500 52275928.0
3.07500 48262236.0
3.08500 50122240.0
3.09500 47744792.0
3.10500 43828992.0
3.11500 41199808.0
3.12500 40067024.0
3.13500 38500704.0
3.14500 35088364.0
3.15500 35396036.0
3.16500 35563856.0
3.17500 32151516.0
3.18500 34514980.0
3.19500 34095432.0
3.20500 32668960.0
3.21500 34039488.0
3.22500 31676024.0
3.23500 33214376.0
3.24500 30039780.0
3.25500 30585196.0
3.26500 29088800.0
3.27500 29130756.0
3.28500 29774064.0
3.29500 27662330.0
3.30500 27005036.0
3.31500 25564580.0
3.32500 26697364.0
3.33500 27592404.0
3.34500 25648490.0
3.35500 23984276.0
3.36500 22795550.0
3.37500 21928480.0
3.38500 23690590.0
3.39500 22543820.0
3.40500 23452844.0
3.41500 23634650.0
3.42500 22571790.0
3.43500 22641716.0
3.44500 23704576.0
3.45500 23117204.0
3.46500 24236004.0
3.47500 24557660.0
3.48500 33605956.0
3.49500 50751564.0
3.50500 92748520.0
3.51500 174532800.0
3.52500 314354816.0
3.53500 502481056.0
3.54500 685754496.0
3.55500 742645440.0
3.56500 673223936.0
3.57500 546785536.0
3.58500 457183648.0
3.59500 419829696.0
3.60500 363819776.0
3.61500 300845312.0
3.62500 260554528.0
3.63500 225200448.0
3.64500 198908656.0
3.65500 173400016.0
3.66500 150884160.0
3.67500 136283824.0
3.68500 121040176.0
3.69500 107866304.0
3.70500 98272592.0
3.71500 87881744.0
3.72500 81378712.0
3.73500 73379296.0
3.74500 66666496.0
3.75500 63645736.0
3.76500 55981956.0
3.77500 53982100.0
3.78500 49576824.0
3.79500 47423136.0
3.80500 45702980.0
3.81500 40850184.0
3.82500 40262816.0
3.83500 37773484.0
3.84500 34710768.0
3.85500 33228360.0
3.86500 31046700.0
3.87500 31494220.0
3.88500 30333464.0
3.89500 29130756.0
3.90500 28165790.0
3.91500 27830150.0
3.92500 28305640.0
3.93500 26417664.0
3.94500 25928190.0
3.95500 25676460.0
3.96500 21662764.0
3.97500 22473896.0
3.98500 20082460.0
3.99500 22459910.0
4.00500 22613744.0
4.01500 23452844.0
4.02500 22823520.0
4.03500 19928624.0
4.04500 19690880.0
4.05500 17453280.0
4.06500 17271476.0
4.07500 19201404.0
4.08500 17718996.0
4.09500 17061700.0
4.10500 16628165.0
4.11500 17271476.0
4.12500 17047716.0
4.13500 14754175.0
4.14500 14935980.0
4.15500 14180790.0
4.16500 13593420.0
4.17500 12642440.0
4.18500 11901235.0
4.19500 11495670.0
4.20500 12628455.0
4.21500 11943190.0
4.22500 11411760.0
4.23500 13299735.0
4.24500 15383500.0
4.25500 12796275.0
4.26500 14544400.0
4.27500 15243650.0
4.28500 14180790.0
4.29500 12027100.0
4.30500 11789355.0
4.31500 12320785.0
4.32500 11803340.0
4.33500 11579580.0
4.34500 10181080.0
4.35500 11160030.0
4.36500 9286040.0
4.37500 9090250.0
4.38500 7971450.0
4.39500 8600775.0
4.40500 8488895.0
4.41500 11439730.0
4.42500 11607550.0
4.43500 9733560.0
4.44500 10362885.0
4.45500 9523785.0
4.46500 8684685.0
4.47500 8964385.0
4.48500 8279120.0
4.49500 7495960.0
4.50500 6908590.0
4.51500 8488895.0
4.52500 10572660.0
4.53500 9188145.0
4.54500 7635810.0
4.55500 9971305.0
4.56500 10069200.0
4.57500 8404985.0
4.58500 9607695.0
4.59500 6656860.0
4.60500 7551900.0
4.61500 7244230.0
4.62500 6866635.0
4.63500 7649795.0
4.64500 6530995.0
4.65500 6265280.0
4.66500 5985580.0
4.67500 5538060.0
4.68500 5076555.0
4.69500 5272345.0
4.70500 6363175.0
4.71500 7034455.0
4.72500 7901525.0
4.73500 6251295.0
4.74500 6726785.0
4.75500 6838665.0
4.76500 8726640.0
4.77500 13131915.0
4.78500 10740480.0
4.79500 6740770.0
4.80500 7398065.0
4.81500 8460925.0
4.82500 6419115.0
4.83500 6628890.0
4.84500 6433100.0
4.85500 6195355.0
4.86500 6978515.0
4.87500 9076265.0
4.88500 9118220.0
4.89500 10376870.0
4.90500 10558675.0
4.91500 11174015.0
4.92500 9901380.0
4.93500 12628455.0
4.94500 14670265.0
4.95500 11999130.0
4.96500 11215970.0
4.97500 11439730.0
4.98500 12628455.0
4.99500 14222745.0
5.00500 9663635.0
5.01500 9579725.0
5.02500 10838375.0
5.03500 8223180.0
5.04500 11719430.0
5.05500 9062280.0
5.06500 10306945.0
5.07500 10418825.0
5.08500 10530705.0
5.09500 8572805.0
5.10500 8964385.0
5.11500 8404985.0
5.12500 10740480.0
5.13500 10195065.0
5.14500 13537480.0
5.15500 10195065.0
5.16500 10390855.0
5.17500 11999130.0
5.18500 11719430.0
5.19500 10153110.0
5.20500 11971160.0
5.21500 15719140.0
5.22500 19676896.0
5.23500 23299010.0
5.24500 28165790.0
5.25500 34235280.0
5.26500 37507768.0
5.27500 36514836.0
5.28500 27564436.0
5.29500 24291944.0
5.30500 22054344.0
5.31500 23382920.0
5.32500 20138400.0
5.33500 17607116.0
5.34500 16292525.0
5.35500 15984855.0
5.36500 13425600.0
5.37500 12138980.0
5.38500 12782290.0
5.39500 13845150.0
5.40500 10181080.0
5.41500 10474765.0
5.42500 9957320.0
5.43500 9803485.0
5.44500 7495960.0
5.45500 8265135.0
5.46500 8013405.0
5.47500 8432955.0
5.48500 8460925.0
5.49500 10866345.0
5.50500 9174160.0
5.51500 8586790.0
5.52500 8167240.0
5.53500 10950255.0
5.54500 15775080.0
5.55500 14949965.0
5.56500 11355820.0
5.57500 12418680.0
5.58500 11048150.0
5.59500 9733560.0
5.60500 11649505.0
5.61500 10628600.0
5.62500 13006050.0
5.63500 11817325.0
5.64500 9929350.0
5.65500 10348900.0
5.66500 8069345.0
5.67500 7565885.0
5.68500 8279120.0
5.69500 9705590.0
5.70500 9300025.0
5.71500 8432955.0
5.72500 7593855.0
5.73500 10125140.0
5.74500 9789500.0
5.75500 9355965.0
5.76500 9915365.0
5.77500 9761530.0
5.78500 9425890.0
5.79500 9789500.0
5.80500 10880330.0
5.81500 12180935.0
5.82500 12250860.0
5.83500 10278975.0
5.84500 8824535.0
5.85500 8964385.0
5.86500 8740625.0
5.87500 8656715.0
5.88500 9635665.0
5.89500 7579870.0
5.90500 9230100.0
5.91500 8530850.0
5.92500 9258070.0
5.93500 7677765.0
5.94500 8069345.0
5.95500 10544690.0
5.96500 8181225.0
5.97500 9327995.0
5.98500 7901525.0
5.99500 7747690.0
6.00500 9649650.0
6.01500 7537915.0
6.02500 9719575.0
6.03500 9635665.0
6.04500 10237020.0
6.05500 12726350.0
6.06500 11243940.0
6.07500 11691460.0
6.08500 10404840.0
6.09500 13467555.0
6.10500 10362885.0
6.11500 9621680.0
6.12500 12558530.0
6.13500 15803050.0
6.14500 11355820.0
6.15500 9495815.0
6.16500 9551755.0
6.17500 11355820.0
6.18500 9551755.0
6.19500 11271910.0
6.20500 10572660.0
6.21500 10796420.0
6.22500 9314010.0
6.23500 9565740.0
6.24500 12964095.0
6.25500 11160030.0
6.26500 10125140.0
6.27500 9272055.0
6.28500 9314010.0
6.29500 8418970.0
6.30500 7481975.0
6.31500 7202275.0
6.32500 7202275.0
6.33500 7859570.0
6.34500 7495960.0
6.35500 7901525.0
6.36500 8432955.0
6.37500 8978370.0
6.38500 7719720.0
6.39500 8572805.0
6.40500 7202275.0
6.41500 7691750.0
6.42500 7537915.0
6.43500 6698815.0
6.44500 7565885.0
6.45500 6600920.0
6.46500 7006485.0
6.47500 8209195.0
6.48500 9132205.0
6.49500 12852215.0
6.50500 14376580.0
6.51500 12726350.0
6.52500 11355820.0
6.53500 10544690.0
6.54500 12027100.0
6.55500 16809970.0
6.56500 16893880.0
6.57500 17970724.0
6.58500 13971015.0
6.59500 12866200.0
6.60500 13845150.0
6.61500 17173580.0
6.62500 13523495.0
6.63500 8768595.0
6.64500 7440020.0
6.65500 7901525.0
6.66500 8125285.0
6.67500 6614905.0
6.68500 9355965.0
6.69500 8223180.0
6.70500 8167240.0
6.71500 7509945.0
6.72500 6838665.0
6.73500 8195210.0
6.74500 5244375.0
6.75500 9355965.0
6.76500 8349045.0
6.77500 9048295.0
6.78500 11943190.0
6.79500 8908445.0
6.80500 9020325.0
6.81500 8153255.0
6.82500 9327995.0
6.83500 8740625.0
6.84500 8013405.0
6.85500 10278975.0
6.86500 11719430.0
6.87500 9439875.0
6.88500 11943190.0
6.89500 11453715.0
6.90500 13705300.0
6.91500 13145900.0
6.92500 16334480.0
6.93500 14838085.0
6.94500 11747400.0
6.95500 9383935.0
6.96500 9677620.0
6.97500 11789355.0
6.98500 10502735.0
6.99500 10642585.0
7.00500 11313865.0
7.01500 10223035.0
7.02500 7831600.0
7.03500 8796565.0
7.04500 8740625.0
7.05500 8866490.0
7.06500 10013260.0
7.07500 8335060.0
7.08500 8614760.0
7.09500 10055215.0
7.10500 9453860.0
7.11500 7747690.0
7.12500 8992355.0
7.13500 7873555.0
7.14500 7146335.0
7.15500 7607840.0
7.16500 7509945.0
7.17500 7314155.0
7.18500 5887685.0
7.19500 6768740.0
7.20500 7817615.0
7.21500 7118365.0
7.22500 7635810.0
7.23500 6293250.0
7.24500 5230390.0
7.25500 6069490.0
7.26500 4992645.0
7.27500 5272345.0
7.28500 5146480.0
7.29500 5538060.0
7.30500 5566030.0
7.31500 6810695.0
7.32500 7467990.0
7.33500 7607840.0
7.34500 6712800.0
7.35500 7216260.0
7.36500 6223325.0
7.37500 6922575.0
7.38500 7062425.0
