0.00500 75400760.0
0.01500 82349464.0
0.02500 71258208.0
0.03500 50085516.0
0.04500 29958918.0
0.05500 15716785.0
0.06500 9734661.0
0.07500 8919421.0
0.08500 9659200.0
0.09500 10928194.0
0.10500 12153696.0
0.11500 13325130.0
0.12500 14432135.0
0.13500 15206822.0
0.14500 16402450.0
0.15500 17589212.0
0.16500 18721574.0
0.17500 19784868.0
0.18500 20577584.0
0.19500 21707478.0
0.20500 22891796.0
0.21500 23860356.0
0.22500 24897862.0
0.23500 25527572.0
0.24500 26575220.0
0.25500 27787680.0
0.26500 28627406.0
0.27500 29709524.0
0.28500 30442972.0
0.29500 31141322.0
0.30500 32196036.0
0.31500 32988720.0
0.32500 33903520.0
0.33500 34572764.0
0.34500 35173144.0
0.35500 36166828.0
0.36500 36969860.0
0.37500 37544716.0
0.38500 38058352.0
0.39500 38613720.0
0.40500 39618852.0
0.41500 40437856.0
0.42500 40990352.0
0.43500 41602996.0
0.44500 41812160.0
0.45500 42606256.0
0.46500 43139276.0
0.47500 43612596.0
0.48500 43771892.0
0.49500 43810140.0
0.50500 44541812.0
0.51500 44982604.0
0.52500 44731184.0
0.53500 44967448.0
0.54500 44972040.0
0.55500 45322764.0
0.56500 45498852.0
0.57500 45487648.0
0.58500 45316792.0
0.59500 44703372.0
0.60500 44373888.0
0.61500 43807344.0
0.62500 42636676.0
0.63500 41710820.0
0.64500 40207592.0
0.65500 38617132.0
0.66500 36915408.0
0.67500 34396560.0
0.68500 32034900.0
0.69500 29118632.0
0.70500 26189888.0
0.71500 23620608.0
0.72500 21024408.0
0.73500 18867332.0
0.74500 16922368.0
0.75500 15138189.0
0.76500 13805490.0
0.77500 12547724.0
0.78500 11412137.0
0.79500 10446035.0
0.80500 9543941.0
0.81500 8822975.0
0.82500 8190652.0
0.83500 7571771.0
0.84500 7078037.0
0.85500 6557199.0
0.86500 6120320.0
0.87500 5702120.0
0.88500 5336060.0
0.89500 5043207.0
0.90500 4723147.0
0.91500 4435027.0
0.92500 4202557.0
0.93500 3967472.0
0.94500 3754264.0
0.95500 3539446.0
0.96500 3351040.0
0.97500 3194012.0
0.98500 3022924.0
0.99500 2896216.0
1.00500 2752017.0
1.01500 2608680.0
1.02500 2470765.0
1.03500 2333406.0
1.04500 2233631.0
1.05500 2142737.0
1.06500 2025468.0
1.07500 1944699.0
1.08500 1859483.0
1.09500 1780560.0
1.10500 1707301.0
1.11500 1635529.0
1.12500 1589766.0
1.13500 1523173.0
1.14500 1456961.0
1.15500 1399714.0
1.16500 1333260.0
1.17500 1281703.0
1.18500 1237103.0
1.19500 1198791.0
1.20500 1167397.0
1.21500 1137601.0
1.22500 1079847.0
1.23500 1029232.0
1.24500 986925.0
1.25500 949799.0
1.26500 911164.0
1.27500 883047.0
1.28500 845839.0
1.29500 819321.0
1.30500 798834.0
1.31500 777320.0
1.32500 755491.0
1.33500 732632.0
1.34500 706839.0
1.35500 679338.0
1.36500 659487.0
1.37500 634430.0
1.38500 616214.0
1.39500 594782.0
1.40500 577786.0
1.41500 564913.0
1.42500 547358.0
1.43500 540397.0
1.44500 527488.0
1.45500 516429.0
1.46500 501242.0
1.47500 487154.0
1.48500 472979.0
1.49500 462080.0
1.50500 454271.0
1.51500 442047.0
1.52500 427789.0
1.53500 415262.0
1.54500 405854.0
1.55500 394176.0
1.56500 384693.0
1.57500 380250.0
1.58500 376066.0
1.59500 370478.0
1.60500 371052.0
1.61500 372140.0
1.62500 371558.0
1.63500 367483.0
1.64500 365463.0
1.65500 358804.0
1.66500 352980.0
1.67500 346949.0
1.68500 352328.0
1.69500 340481.0
1.70500 341929.0
1.71500 343580.0
1.72500 350560.0
1.73500 357510.0
1.74500 360894.0
1.75500 366022.0
1.76500 368191.0
1.77500 366378.0
1.78500 369799.0
1.79500 377140.0
1.80500 382769.0
1.81500 397762.0
1.82500 418346.0
1.83500 443209.0
1.84500 465411.0
1.85500 491468.0
1.86500 515995.0
1.87500 539335.0
1.88500 570410.0
1.89500 610907.0
1.90500 658737.0
1.91500 711027.0
1.92500 772624.0
1.93500 861273.0
1.94500 980144.0
1.95500 1132733.0
1.96500 1349247.0
1.97500 1673018.0
1.98500 2190065.0
1.99500 2986934.0
2.00500 4210088.0
2.01500 6136459.0
2.02500 8838280.0
2.03500 12014377.0
2.04500 14385825.0
2.05500 14376428.0
2.06500 11532114.0
2.07500 7758600.0
2.08500 4660706.0
2.09500 2862442.0
2.10500 1955110.0
2.11500 1398207.0
2.12500 1067302.0
2.13500 841853.0
2.14500 667471.0
2.15500 541806.0
2.16500 447455.0
2.17500 378832.0
2.18500 324089.0
2.19500 279547.0
2.20500 245629.0
2.21500 218004.0
2.22500 191517.0
2.23500 170278.0
2.24500 152199.0
2.25500 136830.0
2.26500 122938.0
2.27500 111925.0
2.28500 101365.0
2.29500 91023.0
2.30500 83128.0
2.31500 74869.0
2.32500 68274.0
2.33500 62620.0
2.34500 57132.0
2.35500 52765.0
2.36500 49328.0
2.37500 45379.0
2.38500 42914.0
2.39500 40542.0
2.40500 38416.0
2.41500 36751.0
2.42500 34647.0
2.43500 32768.0
2.44500 29761.0
2.45500 28126.0
2.46500 26314.0
2.47500 24877.0
2.48500 23599.0
2.49500 22167.0
2.50500 20976.0
2.51500 19831.0
2.52500 19109.0
2.53500 17950.0
2.54500 16811.0
2.55500 15976.0
2.56500 15102.0
2.57500 14311.0
2.58500 13851.0
2.59500 12984.0
2.60500 12443.0
2.61500 11896.0
2.62500 11456.0
2.63500 10878.0
2.64500 10370.0
2.65500 10057.0
2.66500 9286.0
2.67500 8760.0
2.68500 8542.0
2.69500 8566.0
2.70500 7986.0
2.71500 7867.0
2.72500 7614.0
2.73500 7598.0
2.74500 7385.0
2.75500 7379.0
2.76500 7119.0
2.77500 6947.0
2.78500 6514.0
2.79500 6573.0
2.80500 6201.0
2.81500 6316.0
2.82500 6009.0
2.83500 5904.0
2.84500 5547.0
2.85500 5650.0
2.86500 5447.0
2.87500 5342.0
2.88500 5194.0
2.89500 4844.0
2.90500 4800.0
2.91500 4618.0
2.92500 4452.0
2.93500 4366.0
2.94500 4449.0
2.95500 4619.0
2.96500 4544.0
2.97500 4493.0
2.98500 4303.0
2.99500 4111.0
3.00500 3916.0
3.01500 3602.0
3.02500 3565.0
3.03500 3626.0
3.04500 3658.0
3.05500 3670.0
3.06500 3792.0
3.07500 3809.0
3.08500 3908.0
3.09500 3794.0
3.10500 3738.0
3.11500 3881.0
3.12500 3662.0
3.13500 3682.0
3.14500 3419.0
3.15500 3350.0
3.16500 3180.0
3.17500 3209.0
3.18500 3276.0
3.19500 3120.0
3.20500 3013.0
3.21500 3062.0
3.22500 3178.0
3.23500 3126.0
3.24500 3238.0
3.25500 3303.0
3.26500 3179.0
3.27500 3075.0
3.28500 3055.0
3.29500 2919.0
3.30500 2746.0
3.31500 2731.0
3.32500 2513.0
3.33500 2640.0
3.34500 2606.0
3.35500 2714.0
3.36500 2807.0
3.37500 2993.0
3.38500 2981.0
3.39500 3239.0
3.40500 3389.0
3.41500 3436.0
3.42500 3405.0
3.43500 3300.0
3.44500 2893.0
3.45500 2833.0
3.46500 2834.0
3.47500 2661.0
3.48500 2654.0
3.49500 2676.0
3.50500 2757.0
3.51500 2932.0
3.52500 2936.0
3.53500 3064.0
3.54500 3129.0
3.55500 2942.0
3.56500 2841.0
3.57500 2803.0
3.58500 2551.0
3.59500 2354.0
3.60500 2380.0
3.61500 2285.0
3.62500 2185.0
3.63500 2299.0
3.64500 2335.0
3.65500 2457.0
3.66500 2493.0
3.67500 2321.0
3.68500 2269.0
3.69500 2342.0
3.70500 2308.0
3.71500 2252.0
3.72500 2064.0
3.73500 1991.0
3.74500 2000.0
3.75500 2037.0
3.76500 1811.0
3.77500 1732.0
3.78500 1590.0
3.79500 1690.0
3.80500 1766.0
3.81500 1691.0
3.82500 1539.0
3.83500 1345.0
3.84500 1281.0
3.85500 1626.0
3.86500 1815.0
3.87500 2480.0
3.88500 4256.0
3.89500 8610.0
3.90500 17054.0
3.91500 30747.0
3.92500 43112.0
3.93500 49062.0
3.94500 42076.0
3.95500 29497.0
3.96500 18788.0
3.97500 13068.0
3.98500 9982.0
3.99500 8014.0
4.00500 7045.0
4.01500 6225.0
4.02500 5597.0
4.03500 5176.0
4.04500 4620.0
4.05500 4507.0
4.06500 4387.0
4.07500 4385.0
4.08500 4350.0
4.09500 4187.0
4.10500 4048.0
4.11500 3842.0
4.12500 3783.0
4.13500 3724.0
4.14500 3527.0
4.15500 3290.0
4.16500 3313.0
4.17500 3327.0
4.18500 3285.0
4.19500 3309.0
4.20500 3073.0
4.21500 3205.0
4.22500 3188.0
4.23500 3032.0
4.24500 3059.0
4.25500 2818.0
4.26500 2778.0
4.27500 2689.0
4.28500 2530.0
4.29500 2523.0
4.30500 2331.0
4.31500 2329.0
4.32500 2367.0
4.33500 2390.0
4.34500 2463.0
4.35500 2639.0
4.36500 2535.0
4.37500 2554.0
4.38500 2569.0
4.39500 2485.0
4.40500 2548.0
4.41500 2381.0
4.42500 2406.0
4.43500 2368.0
4.44500 2209.0
4.45500 2058.0
4.46500 2226.0
4.47500 2233.0
4.48500 2155.0
4.49500 2211.0
4.50500 2242.0
4.51500 2233.0
4.52500 2285.0
4.53500 2152.0
4.54500 2188.0
4.55500 2118.0
4.56500 2222.0
4.57500 2083.0
4.58500 2075.0
4.59500 2037.0
4.60500 1954.0
4.61500 1981.0
4.62500 2007.0
4.63500 1907.0
4.64500 1947.0
4.65500 2002.0
4.66500 1955.0
4.67500 1976.0
4.68500 1998.0
4.69500 1882.0
4.70500 1963.0
4.71500 1789.0
4.72500 1788.0
4.73500 1767.0
4.74500 1677.0
4.75500 1622.0
4.76500 1613.0
4.77500 1588.0
4.78500 1637.0
4.79500 1710.0
4.80500 1641.0
4.81500 1693.0
4.82500 1729.0
4.83500 1687.0
4.84500 1690.0
4.85500 1629.0
4.86500 1635.0
4.87500 1440.0
4.88500 1458.0
4.89500 1443.0
4.90500 1415.0
4.91500 1432.0
4.92500 1518.0
4.93500 1526.0
4.94500 1486.0
4.95500 1541.0
4.96500 1476.0
4.97500 1483.0
4.98500 1454.0
4.99500 1406.0
5.00500 1450.0
5.01500 1339.0
5.02500 1359.0
5.03500 1450.0
5.04500 1467.0
5.05500 1612.0
5.06500 1567.0
5.07500 1574.0
5.08500 1584.0
5.09500 1494.0
5.10500 1428.0
5.11500 1398.0
5.12500 1477.0
5.13500 1511.0
5.14500 1519.0
5.15500 1498.0
5.16500 1607.0
5.17500 1459.0
5.18500 1452.0
5.19500 1471.0
5.20500 1478.0
5.21500 1402.0
5.22500 1324.0
5.23500 1234.0
5.24500 1241.0
5.25500 1247.0
5.26500 1231.0
5.27500 1309.0
5.28500 1206.0
5.29500 1199.0
5.30500 1176.0
5.31500 1073.0
5.32500 1127.0
5.33500 1089.0
5.34500 1107.0
5.35500 1058.0
5.36500 968.0
5.37500 1006.0
5.38500 1010.0
5.39500 1021.0
5.40500 943.0
5.41500 963.0
5.42500 872.0
5.43500 930.0
5.44500 901.0
5.45500 903.0
5.46500 941.0
5.47500 925.0
5.48500 907.0
5.49500 866.0
5.50500 886.0
5.51500 908.0
5.52500 914.0
5.53500 905.0
5.54500 877.0
5.55500 838.0
5.56500 874.0
5.57500 864.0
5.58500 895.0
5.59500 852.0
5.60500 766.0
5.61500 814.0
5.62500 881.0
5.63500 842.0
5.64500 945.0
5.65500 968.0
5.66500 918.0
5.67500 967.0
5.68500 1003.0
5.69500 1139.0
5.70500 1145.0
5.71500 1004.0
5.72500 1089.0
5.73500 1175.0
5.74500 1174.0
5.75500 1315.0
5.76500 1602.0
5.77500 2044.0
5.78500 2694.0
5.79500 3701.0
5.80500 5006.0
5.81500 7008.0
5.82500 8513.0
5.83500 9136.0
5.84500 8466.0
5.85500 6962.0
5.86500 5111.0
5.87500 3707.0
5.88500 2748.0
5.89500 2154.0
5.90500 1578.0
5.91500 1287.0
5.92500 977.0
5.93500 834.0
5.94500 774.0
5.95500 687.0
5.96500 648.0
5.97500 618.0
5.98500 569.0
5.99500 551.0
6.00500 499.0
6.01500 516.0
6.02500 493.0
6.03500 461.0
6.04500 436.0
6.05500 437.0
6.06500 462.0
6.07500 457.0
6.08500 446.0
6.09500 402.0
6.10500 362.0
6.11500 361.0
6.12500 408.0
6.13500 402.0
6.14500 373.0
6.15500 392.0
6.16500 402.0
6.17500 400.0
6.18500 459.0
6.19500 397.0
6.20500 386.0
6.21500 401.0
6.22500 432.0
6.23500 346.0
6.24500 351.0
6.25500 348.0
6.26500 336.0
6.27500 338.0
6.28500 335.0
6.29500 321.0
6.30500 327.0
6.31500 330.0
6.32500 354.0
6.33500 307.0
6.34500 296.0
6.35500 310.0
6.36500 300.0
6.37500 303.0
6.38500 306.0
6.39500 273.0
6.40500 286.0
6.41500 298.0
6.42500 277.0
6.43500 308.0
6.44500 261.0
6.45500 227.0
6.46500 252.0
6.47500 247.0
6.48500 234.0
6.49500 248.0
6.50500 238.0
6.51500 263.0
6.52500 204.0
6.53500 253.0
6.54500 250.0
6.55500 269.0
6.56500 248.0
6.57500 294.0
6.58500 210.0
6.59500 263.0
6.60500 248.0
6.61500 262.0
6.62500 268.0
6.63500 243.0
6.64500 251.0
6.65500 242.0
6.66500 295.0
6.67500 265.0
6.68500 279.0
6.69500 296.0
6.70500 347.0
6.71500 297.0
6.72500 306.0
6.73500 343.0
6.74500 307.0
6.75500 268.0
6.76500 309.0
6.77500 280.0
6.78500 272.0
6.79500 248.0
6.80500 257.0
6.81500 271.0
6.82500 239.0
6.83500 278.0
6.84500 262.0
6.85500 240.0
6.86500 300.0
6.87500 292.0
6.88500 236.0
6.89500 302.0
6.90500 289.0
6.91500 309.0
6.92500 300.0
6.93500 247.0
6.94500 263.0
6.95500 296.0
6.96500 277.0
6.97500 288.0
6.98500 274.0
6.99500 275.0
7.00500 252.0
7.01500 294.0
7.02500 299.0
7.03500 303.0
7.04500 264.0
7.05500 261.0
7.06500 276.0
7.07500 242.0
7.08500 268.0
7.09500 265.0
7.10500 233.0
7.11500 243.0
7.12500 229.0
7.13500 218.0
7.14500 253.0
7.15500 247.0
7.16500 314.0
7.17500 371.0
7.18500 337.0
7.19500 343.0
7.20500 325.0
7.21500 306.0
7.22500 330.0
7.23500 269.0
7.24500 287.0
7.25500 254.0
7.26500 271.0
7.27500 255.0
7.28500 289.0
7.29500 286.0
7.30500 312.0
7.31500 326.0
7.32500 357.0
7.33500 240.0
7.34500 277.0
7.35500 379.0
7.36500 376.0
7.37500 312.0
7.38500 319.0
7.39500 322.0
7.40500 317.0
7.41500 318.0
7.42500 281.0
7.43500 277.0
7.44500 308.0
7.45500 304.0
7.46500 266.0
7.47500 244.0
7.48500 253.0
7.49500 265.0
7.50500 231.0
7.51500 212.0
7.52500 241.0
7.53500 225.0
7.54500 261.0
7.55500 237.0
7.56500 237.0
7.57500 234.0
7.58500 224.0
7.59500 243.0
7.60500 257.0
7.61500 213.0
7.62500 255.0
7.63500 279.0
7.64500 280.0
7.65500 359.0
7.66500 268.0
7.67500 217.0
7.68500 276.0
7.69500 298.0
7.70500 313.0
7.71500 322.0
7.72500 295.0
7.73500 311.0
7.74500 295.0
7.75500 292.0
7.76500 337.0
7.77500 317.0
7.78500 312.0
7.79500 336.0
7.80500 383.0
7.81500 370.0
7.82500 419.0
7.83500 386.0
7.84500 326.0
7.85500 322.0
7.86500 367.0
7.87500 402.0
7.88500 306.0
7.89500 263.0
7.90500 271.0
7.91500 231.0
7.92500 296.0
7.93500 253.0
7.94500 272.0
7.95500 239.0
7.96500 263.0
7.97500 243.0
7.98500 232.0
7.99500 289.0
8.00500 242.0
8.01500 252.0
8.02500 241.0
8.03500 237.0
8.04500 218.0
8.05500 217.0
8.06500 275.0
8.07500 286.0
8.08500 283.0
8.09500 287.0
8.10500 285.0
8.11500 319.0
8.12500 282.0
8.13500 256.0
8.14500 277.0
8.15500 284.0
8.16500 265.0
8.17500 269.0
8.18500 267.0
8.19500 277.0
8.20500 250.0
8.21500 306.0
8.22500 276.0
8.23500 232.0
8.24500 257.0
8.25500 264.0
8.26500 297.0
8.27500 336.0
8.28500 314.0
8.29500 287.0
8.30500 283.0
8.31500 223.0
8.32500 243.0
8.33500 313.0
8.34500 304.0
8.35500 316.0
8.36500 413.0
8.37500 480.0
8.38500 330.0
8.39500 284.0
8.40500 327.0
8.41500 348.0
8.42500 353.0
8.43500 415.0
8.44500 342.0
8.45500 317.0
8.46500 385.0
8.47500 507.0
8.48500 457.0
8.49500 395.0
8.50500 377.0
8.51500 427.0
8.52500 319.0
8.53500 349.0
8.54500 285.0
8.55500 315.0
8.56500 317.0
8.57500 324.0
8.58500 337.0
8.59500 346.0
8.60500 256.0
8.61500 275.0
8.62500 312.0
8.63500 328.0
8.64500 238.0
8.65500 257.0
8.66500 259.0
8.67500 249.0
8.68500 302.0
8.69500 243.0
8.70500 328.0
8.71500 399.0
8.72500 406.0
8.73500 370.0
8.74500 362.0
8.75500 281.0
8.76500 210.0
8.77500 240.0
8.78500 246.0
8.79500 260.0
8.80500 259.0
8.81500 317.0
8.82500 245.0
8.83500 261.0
8.84500 223.0
8.85500 211.0
8.86500 234.0
8.87500 247.0
8.88500 241.0
8.89500 227.0
8.90500 207.0
8.91500 235.0
8.92500 242.0
8.93500 281.0
8.94500 275.0
8.95500 223.0
8.96500 277.0
8.97500 265.0
8.98500 281.0
8.99500 247.0
9.00500 223.0
9.01500 270.0
9.02500 230.0
9.03500 287.0
9.04500 247.0
9.05500 195.0
9.06500 224.0
9.07500 193.0
9.08500 224.0
9.09500 230.0
9.10500 233.0
9.11500 238.0
9.12500 233.0
9.13500 210.0
9.14500 258.0
9.15500 220.0
9.16500 233.0
9.17500 230.0
9.18500 203.0
9.19500 248.0
9.20500 276.0
9.21500 271.0
9.22500 298.0
9.23500 221.0
9.24500 258.0
9.25500 298.0
9.26500 293.0
9.27500 263.0
9.28500 229.0
9.29500 239.0
9.30500 213.0
9.31500 220.0
9.32500 181.0
9.33500 205.0
9.34500 196.0
9.35500 184.0
9.36500 201.0
9.37500 202.0
9.38500 207.0
9.39500 238.0
9.40500 216.0
9.41500 228.0
9.42500 234.0
9.43500 218.0
9.44500 253.0
9.45500 197.0
9.46500 214.0
9.47500 225.0
9.48500 204.0
9.49500 240.0
9.50500 305.0
9.51500 281.0
9.52500 282.0
9.53500 305.0
9.54500 262.0
9.55500 259.0
9.56500 268.0
9.57500 325.0
9.58500 289.0
9.59500 326.0
9.60500 313.0
9.61500 270.0
9.62500 326.0
9.63500 304.0
9.64500 381.0
9.65500 351.0
9.66500 342.0
9.67500 330.0
9.68500 289.0
9.69500 304.0
9.70500 319.0
9.71500 271.0
9.72500 296.0
9.73500 334.0
9.74500 344.0
9.75500 314.0
9.76500 281.0
9.77500 318.0
9.78500 297.0
9.79500 274.0
9.80500 257.0
9.81500 363.0
9.82500 343.0
9.83500 321.0
9.84500 283.0
9.85500 291.0
9.86500 256.0
9.87500 382.0
9.88500 336.0
9.89500 300.0
9.90500 288.0
9.91500 291.0
9.92500 305.0
9.93500 295.0
9.94500 288.0
9.95500 278.0
9.96500 317.0
9.97500 307.0
9.98500 364.0
9.99500 448.0
10.00500 455.0
10.01500 449.0
10.02500 422.0
10.03500 469.0
10.04500 584.0
10.05500 574.0
10.06500 449.0
10.07500 411.0
10.08500 360.0
10.09500 389.0
10.10500 479.0
10.11500 444.0
10.12500 501.0
10.13500 526.0
10.14500 565.0
10.15500 569.0
10.16500 402.0
10.17500 463.0
10.18500 381.0
10.19500 391.0
10.20500 467.0
10.21500 437.0
10.22500 441.0
10.23500 327.0
10.24500 354.0
10.25500 389.0
10.26500 382.0
10.27500 315.0
10.28500 331.0
10.29500 364.0
10.30500 355.0
10.31500 277.0
10.32500 227.0
10.33500 213.0
10.34500 216.0
10.35500 240.0
10.36500 256.0
10.37500 248.0
10.38500 265.0
10.39500 242.0
10.40500 268.0
10.41500 246.0
10.42500 257.0
10.43500 266.0
10.44500 299.0
10.45500 243.0
10.46500 296.0
10.47500 289.0
10.48500 351.0
10.49500 286.0
10.50500 305.0
10.51500 264.0
10.52500 265.0
10.53500 316.0
10.54500 288.0
10.55500 223.0
10.56500 279.0
10.57500 324.0
10.58500 398.0
10.59500 351.0
10.60500 418.0
10.61500 458.0
10.62500 563.0
10.63500 482.0
10.64500 278.0
10.65500 226.0
10.66500 226.0
10.67500 237.0
10.68500 226.0
10.69500 251.0
10.70500 301.0
10.71500 370.0
10.72500 258.0
10.73500 350.0
10.74500 555.0
10.75500 338.0
10.76500 416.0
10.77500 356.0
10.78500 338.0
10.79500 360.0
10.80500 218.0
10.81500 288.0
10.82500 265.0
10.83500 333.0
10.84500 396.0
10.85500 428.0
10.86500 486.0
10.87500 337.0
10.88500 326.0
10.89500 325.0
10.90500 333.0
10.91500 298.0
10.92500 270.0
10.93500 286.0
10.94500 366.0
10.95500 386.0
10.96500 519.0
10.97500 404.0
10.98500 295.0
10.99500 391.0
11.00500 491.0
11.01500 490.0
11.02500 472.0
11.03500 383.0
11.04500 322.0
11.05500 371.0
11.06500 320.0
11.07500 411.0
11.08500 436.0
11.09500 289.0
11.10500 312.0
11.11500 291.0
11.12500 252.0
11.13500 299.0
11.14500 291.0
11.15500 340.0
11.16500 311.0
11.17500 276.0
11.18500 239.0
11.19500 262.0
11.20500 243.0
11.21500 239.0
11.22500 228.0
11.23500 305.0
11.24500 317.0
11.25500 286.0
11.26500 325.0
11.27500 254.0
11.28500 242.0
11.29500 271.0
11.30500 238.0
11.31500 293.0
11.32500 274.0
11.33500 335.0
11.34500 285.0
11.35500 328.0
11.36500 260.0
11.37500 258.0
11.38500 242.0
11.39500 302.0
11.40500 229.0
11.41500 236.0
11.42500 256.0
11.43500 260.0
11.44500 307.0
11.45500 310.0
11.46500 287.0
11.47500 361.0
11.48500 403.0
11.49500 399.0
11.50500 341.0
11.51500 315.0
11.52500 327.0
11.53500 372.0
11.54500 279.0
11.55500 250.0
11.56500 395.0
11.57500 331.0
11.58500 316.0
11.59500 325.0
11.60500 341.0
11.61500 290.0
11.62500 334.0
11.63500 270.0
11.64500 277.0
11.65500 278.0
11.66500 287.0
11.67500 260.0
11.68500 222.0
11.69500 256.0
11.70500 220.0
11.71500 270.0
11.72500 242.0
11.73500 267.0
11.74500 297.0
11.75500 268.0
11.76500 294.0
11.77500 280.0
11.78500 351.0
11.79500 551.0
11.80500 526.0
11.81500 543.0
11.82500 373.0
11.83500 258.0
11.84500 290.0
11.85500 237.0
11.86500 279.0
11.87500 235.0
11.88500 265.0
11.89500 292.0
11.90500 255.0
11.91500 243.0
11.92500 251.0
11.93500 262.0
11.94500 296.0
11.95500 256.0
11.96500 264.0
11.97500 217.0
11.98500 268.0
11.99500 256.0
