0.01000 11689616.0
0.02000 11183182.0
0.03000 8756300.0
0.04000 6050361.0
0.05000 3632028.0
0.06000 2147941.0
0.07000 1696254.0
0.08000 1730867.0
0.09000 1946704.0
0.10000 2122588.0
0.11000 2313015.0
0.12000 2543751.0
0.13000 2722399.0
0.14000 2951407.0
0.15000 3132449.0
0.16000 3284862.0
0.17000 3518977.0
0.18000 3674172.0
0.19000 3879599.0
0.20000 4047942.0
0.21000 4189590.0
0.22000 4436301.0
0.23000 4589898.0
0.24000 4785510.0
0.25000 4977976.0
0.26000 5067545.0
0.27000 5281112.0
0.28000 5403685.0
0.29000 5554207.0
0.30000 5727318.0
0.31000 5792939.0
0.32000 5963422.0
0.33000 6092094.0
0.34000 6204167.0
0.35000 6437524.0
0.36000 6451187.0
0.37000 6580300.0
0.38000 6717384.0
0.39000 6749229.0
0.40000 6867429.0
0.41000 6844828.0
0.42000 6751722.0
0.43000 6485048.0
0.44000 5597048.0
0.45000 4265710.0
0.46000 2907198.0
0.47000 1980766.0
0.48000 1455524.0
0.49000 1105106.0
0.50000 873182.0
0.51000 706997.0
0.52000 578601.0
0.53000 486284.0
0.54000 402303.0
0.55000 342352.0
0.56000 293570.0
0.57000 251954.0
0.58000 222070.0
0.59000 193025.0
0.60000 167584.0
0.61000 149245.0
0.62000 131538.0
0.63000 118088.0
0.64000 105764.0
0.65000 94586.0
0.66000 87027.0
0.67000 79701.0
0.68000 73212.0
0.69000 66535.0
0.70000 61284.0
0.71000 57807.0
0.72000 53303.0
0.73000 49910.0
0.74000 47760.0
0.75000 44917.0
0.76000 43630.0
0.77000 41722.0
0.78000 39557.0
0.79000 38179.0
0.80000 36742.0
0.81000 36342.0
0.82000 34921.0
0.83000 33425.0
0.84000 32861.0
0.85000 31627.0
0.86000 31330.0
0.87000 30649.0
0.88000 30145.0
0.89000 29786.0
0.90000 28935.0
0.91000 28712.0
0.92000 28135.0
0.93000 27545.0
0.94000 28126.0
0.95000 26917.0
0.96000 26792.0
0.97000 26313.0
0.98000 25795.0
0.99000 25670.0
1.00000 25561.0
1.01000 24732.0
1.02000 24788.0
1.03000 24382.0
1.04000 23991.0
1.05000 23414.0
1.06000 23058.0
1.07000 22507.0
1.08000 21882.0
1.09000 21830.0
1.10000 21509.0
1.11000 20941.0
1.12000 20613.0
1.13000 20043.0
1.14000 19601.0
1.15000 19196.0
1.16000 18434.0
1.17000 18268.0
1.18000 17739.0
1.19000 17168.0
1.20000 17248.0
1.21000 16342.0
1.22000 15963.0
1.23000 15803.0
1.24000 15201.0
1.25000 14676.0
1.26000 14375.0
1.27000 13871.0
1.28000 13602.0
1.29000 13020.0
1.30000 12859.0
1.31000 12401.0
1.32000 11949.0
1.33000 11597.0
1.34000 11054.0
1.35000 10978.0
1.36000 10358.0
1.37000 10175.0
1.38000 9852.0
1.39000 9568.0
1.40000 9314.0
1.41000 8923.0
1.42000 8625.0
1.43000 8237.0
1.44000 8001.0
1.45000 7861.0
1.46000 7306.0
1.47000 7048.0
1.48000 6651.0
1.49000 6585.0
1.50000 6128.0
1.51000 5860.0
1.52000 5705.0
1.53000 5468.0
1.54000 5338.0
1.55000 5259.0
1.56000 4840.0
1.57000 4524.0
1.58000 4318.0
1.59000 4290.0
1.60000 4140.0
1.61000 3850.0
1.62000 3664.0
1.63000 3476.0
1.64000 3386.0
1.65000 3244.0
1.66000 3116.0
1.67000 2887.0
1.68000 2844.0
1.69000 2738.0
1.70000 2543.0
1.71000 2462.0
1.72000 2388.0
1.73000 2258.0
1.74000 2176.0
1.75000 2104.0
1.76000 1940.0
1.77000 1908.0
1.78000 1717.0
1.79000 1769.0
1.80000 1646.0
1.81000 1585.0
1.82000 1498.0
1.83000 1523.0
1.84000 1471.0
1.85000 1389.0
1.86000 1253.0
1.87000 1275.0
1.88000 1219.0
1.89000 1242.0
1.90000 1161.0
1.91000 1079.0
1.92000 1133.0
1.93000 1074.0
1.94000 1066.0
1.95000 1062.0
1.96000 1009.0
1.97000 977.0
1.98000 956.0
1.99000 922.0
2.00000 924.0
2.01000 873.0
2.02000 924.0
2.03000 846.0
2.04000 917.0
2.05000 864.0
2.06000 834.0
2.07000 798.0
2.08000 772.0
2.09000 808.0
2.10000 788.0
2.11000 800.0
2.12000 820.0
2.13000 750.0
2.14000 797.0
2.15000 768.0
2.16000 768.0
2.17000 727.0
2.18000 717.0
2.19000 731.0
2.20000 708.0
2.21000 701.0
2.22000 734.0
2.23000 764.0
2.24000 817.0
2.25000 779.0
2.26000 733.0
2.27000 719.0
2.28000 733.0
2.29000 723.0
2.30000 676.0
2.31000 687.0
2.32000 699.0
2.33000 717.0
2.34000 697.0
2.35000 676.0
2.36000 718.0
2.37000 677.0
2.38000 683.0
2.39000 641.0
2.40000 631.0
2.41000 646.0
2.42000 636.0
2.43000 635.0
2.44000 626.0
2.45000 611.0
2.46000 605.0
2.47000 636.0
2.48000 584.0
2.49000 606.0
2.50000 593.0
2.51000 599.0
2.52000 545.0
2.53000 589.0
2.54000 594.0
2.55000 591.0
2.56000 535.0
2.57000 547.0
2.58000 540.0
2.59000 493.0
2.60000 517.0
2.61000 508.0
2.62000 500.0
2.63000 508.0
2.64000 474.0
2.65000 461.0
2.66000 445.0
2.67000 445.0
2.68000 390.0
2.69000 426.0
2.70000 404.0
2.71000 410.0
2.72000 388.0
2.73000 388.0
2.74000 366.0
2.75000 353.0
2.76000 349.0
2.77000 312.0
2.78000 336.0
2.79000 308.0
2.80000 325.0
2.81000 309.0
2.82000 319.0
2.83000 334.0
2.84000 333.0
2.85000 315.0
2.86000 276.0
2.87000 288.0
2.88000 274.0
2.89000 276.0
2.90000 267.0
2.91000 307.0
2.92000 228.0
2.93000 235.0
2.94000 240.0
2.95000 207.0
2.96000 238.0
2.97000 229.0
2.98000 188.0
2.99000 207.0
3.00000 214.0
3.01000 221.0
3.02000 188.0
3.03000 201.0
3.04000 206.0
3.05000 212.0
3.06000 189.0
3.07000 164.0
3.08000 204.0
3.09000 192.0
3.10000 187.0
3.11000 152.0
3.12000 160.0
3.13000 151.0
3.14000 140.0
3.15000 128.0
3.16000 133.0
3.17000 156.0
3.18000 131.0
3.19000 119.0
3.20000 142.0
3.21000 115.0
3.22000 117.0
3.23000 111.0
3.24000 144.0
3.25000 114.0
3.26000 149.0
3.27000 152.0
3.28000 155.0
3.29000 129.0
3.30000 140.0
3.31000 132.0
3.32000 105.0
3.33000 106.0
3.34000 137.0
3.35000 135.0
3.36000 138.0
3.37000 94.0
3.38000 130.0
3.39000 131.0
3.40000 136.0
3.41000 121.0
3.42000 110.0
3.43000 140.0
3.44000 96.0
3.45000 101.0
3.46000 116.0
3.47000 103.0
3.48000 104.0
3.49000 101.0
3.50000 133.0
3.51000 113.0
3.52000 95.0
3.53000 80.0
3.54000 78.0
3.55000 100.0
3.56000 113.0
3.57000 103.0
3.58000 105.0
3.59000 104.0
3.60000 98.0
3.61000 85.0
3.62000 82.0
3.63000 74.0
3.64000 78.0
3.65000 77.0
3.66000 81.0
3.67000 101.0
3.68000 88.0
3.69000 81.0
3.70000 117.0
3.71000 73.0
3.72000 99.0
3.73000 89.0
3.74000 64.0
3.75000 100.0
3.76000 84.0
3.77000 81.0
3.78000 88.0
3.79000 76.0
3.80000 92.0
3.81000 84.0
3.82000 77.0
3.83000 89.0
3.84000 74.0
3.85000 89.0
3.86000 82.0
3.87000 63.0
3.88000 85.0
3.89000 79.0
3.90000 74.0
3.91000 58.0
3.92000 70.0
3.93000 62.0
3.94000 76.0
3.95000 90.0
3.96000 65.0
3.97000 72.0
3.98000 92.0
3.99000 88.0
4.00000 68.0
4.01000 74.0
4.02000 64.0
4.03000 61.0
4.04000 69.0
4.05000 70.0
4.06000 80.0
4.07000 81.0
4.08000 72.0
4.09000 64.0
4.10000 67.0
4.11000 52.0
4.12000 65.0
4.13000 71.0
4.14000 57.0
4.15000 59.0
4.16000 50.0
4.17000 68.0
4.18000 52.0
4.19000 54.0
4.20000 54.0
4.21000 74.0
4.22000 72.0
4.23000 79.0
4.24000 68.0
4.25000 52.0
4.26000 67.0
4.27000 68.0
4.28000 67.0
4.29000 68.0
4.30000 45.0
4.31000 47.0
4.32000 59.0
4.33000 46.0
4.34000 51.0
4.35000 61.0
4.36000 63.0
4.37000 58.0
4.38000 58.0
4.39000 57.0
4.40000 58.0
4.41000 61.0
4.42000 70.0
4.43000 49.0
4.44000 56.0
4.45000 49.0
4.46000 52.0
4.47000 46.0
4.48000 48.0
4.49000 57.0
4.50000 55.0
4.51000 47.0
4.52000 55.0
4.53000 75.0
4.54000 63.0
4.55000 44.0
4.56000 42.0
4.57000 41.0
4.58000 49.0
4.59000 61.0
4.60000 51.0
4.61000 67.0
4.62000 41.0
4.63000 58.0
4.64000 35.0
4.65000 51.0
4.66000 39.0
4.67000 47.0
4.68000 45.0
4.69000 36.0
4.70000 44.0
4.71000 52.0
4.72000 49.0
4.73000 37.0
4.74000 43.0
4.75000 39.0
4.76000 37.0
4.77000 36.0
4.78000 40.0
4.79000 33.0
4.80000 63.0
4.81000 42.0
4.82000 50.0
4.83000 40.0
4.84000 50.0
4.85000 41.0
4.86000 39.0
4.87000 41.0
4.88000 56.0
4.89000 45.0
4.90000 40.0
4.91000 33.0
4.92000 28.0
4.93000 41.0
4.94000 45.0
4.95000 53.0
4.96000 53.0
4.97000 42.0
4.98000 57.0
4.99000 49.0
5.00000 33.0
5.01000 42.0
5.02000 50.0
5.03000 59.0
5.04000 63.0
5.05000 64.0
5.06000 63.0
5.07000 75.0
5.08000 79.0
5.09000 75.0
5.10000 64.0
5.11000 59.0
5.12000 58.0
5.13000 51.0
5.14000 82.0
5.15000 58.0
5.16000 66.0
5.17000 76.0
