0.00500 72108424.0
0.01500 82142040.0
0.02500 72040584.0
0.03500 52764564.0
0.04500 32478196.0
0.05500 18601616.0
0.06500 13035934.0
0.07500 12556607.0
0.08500 13882485.0
0.09500 15430781.0
0.10500 16883084.0
0.11500 18588472.0
0.12500 20041976.0
0.13500 21365120.0
0.14500 23034544.0
0.15500 24318008.0
0.16500 25831816.0
0.17500 27195976.0
0.18500 28267088.0
0.19500 29628986.0
0.20500 30737796.0
0.21500 32011292.0
0.22500 33465928.0
0.23500 34407780.0
0.24500 35786488.0
0.25500 36943304.0
0.26500 37872424.0
0.27500 38852092.0
0.28500 39601988.0
0.29500 40823448.0
0.30500 41673960.0
0.31500 42578320.0
0.32500 43744940.0
0.33500 44492604.0
0.34500 45561456.0
0.35500 46674412.0
0.36500 47195320.0
0.37500 48353472.0
0.38500 48890536.0
0.39500 49694896.0
0.40500 50559624.0
0.41500 51124712.0
0.42500 52185808.0
0.43500 52534048.0
0.44500 53050520.0
0.45500 53997296.0
0.46500 54570172.0
0.47500 55566312.0
0.48500 55955832.0
0.49500 56497928.0
0.50500 57210132.0
0.51500 57200624.0
0.52500 57809840.0
0.53500 58026404.0
0.54500 58293972.0
0.55500 59045416.0
0.56500 59535772.0
0.57500 60006468.0
0.58500 59798880.0
0.59500 59431824.0
0.60500 59302824.0
0.61500 59116784.0
0.62500 58651432.0
0.63500 58070380.0
0.64500 57012244.0
0.65500 56195736.0
0.66500 53726568.0
0.67500 50220048.0
0.68500 45855336.0
0.69500 39944372.0
0.70500 34163504.0
0.71500 29078540.0
0.72500 24877254.0
0.73500 21575204.0
0.74500 18745798.0
0.75500 16627755.0
0.76500 14904282.0
0.77500 13372730.0
0.78500 12131466.0
0.79500 10938124.0
0.80500 10027517.0
0.81500 9188726.0
0.82500 8422382.0
0.83500 7788156.0
0.84500 7158317.0
0.85500 6637562.0
0.86500 6201638.0
0.87500 5756703.0
0.88500 5359817.0
0.89500 4980103.0
0.90500 4667862.0
0.91500 4373324.0
0.92500 4107373.0
0.93500 3881593.0
0.94500 3643620.0
0.95500 3425085.0
0.96500 3231432.0
0.97500 3056550.0
0.98500 2883909.0
0.99500 2718566.0
1.00500 2577652.0
1.01500 2444933.0
1.02500 2293983.0
1.03500 2176741.0
1.04500 2072713.0
1.05500 1967007.0
1.06500 1867445.0
1.07500 1794238.0
1.08500 1694643.0
1.09500 1618733.0
1.10500 1538242.0
1.11500 1471625.0
1.12500 1406603.0
1.13500 1348610.0
1.14500 1284590.0
1.15500 1232929.0
1.16500 1176707.0
1.17500 1124146.0
1.18500 1073939.0
1.19500 1036452.0
1.20500 1001973.0
1.21500 964038.0
1.22500 916737.0
1.23500 879293.0
1.24500 847176.0
1.25500 812684.0
1.26500 785020.0
1.27500 759485.0
1.28500 725951.0
1.29500 700650.0
1.30500 676933.0
1.31500 650114.0
1.32500 630406.0
1.33500 608476.0
1.34500 589524.0
1.35500 568363.0
1.36500 548475.0
1.37500 534414.0
1.38500 516670.0
1.39500 496588.0
1.40500 481435.0
1.41500 470208.0
1.42500 452710.0
1.43500 436329.0
1.44500 426174.0
1.45500 413763.0
1.46500 407128.0
1.47500 401357.0
1.48500 391621.0
1.49500 380054.0
1.50500 371383.0
1.51500 365904.0
1.52500 358466.0
1.53500 350039.0
1.54500 342989.0
1.55500 340020.0
1.56500 338800.0
1.57500 338331.0
1.58500 336611.0
1.59500 335012.0
1.60500 332773.0
1.61500 329190.0
1.62500 325490.0
1.63500 324424.0
1.64500 323543.0
1.65500 324757.0
1.66500 321604.0
1.67500 320170.0
1.68500 323140.0
1.69500 325174.0
1.70500 331930.0
1.71500 341281.0
1.72500 366897.0
1.73500 392988.0
1.74500 417537.0
1.75500 436238.0
1.76500 454202.0
1.77500 485852.0
1.78500 530291.0
1.79500 582533.0
1.80500 634767.0
1.81500 707658.0
1.82500 828447.0
1.83500 982516.0
1.84500 1177384.0
1.85500 1421284.0
1.86500 1774226.0
1.87500 2418724.0
1.88500 3608860.0
1.89500 6218540.0
1.90500 11946031.0
1.91500 20933986.0
1.92500 30034414.0
1.93500 32923544.0
1.94500 26968156.0
1.95500 15998624.0
1.96500 7918935.0
1.97500 4198347.0
1.98500 2606966.0
1.99500 1806973.0
2.00500 1327954.0
2.01500 1014466.0
2.02500 809520.0
2.03500 671356.0
2.04500 556636.0
2.05500 463431.0
2.06500 391492.0
2.07500 334018.0
2.08500 284776.0
2.09500 244652.0
2.10500 204396.0
2.11500 173936.0
2.12500 151004.0
2.13500 134006.0
2.14500 119443.0
2.15500 106825.0
2.16500 95270.0
2.17500 85479.0
2.18500 79536.0
2.19500 73032.0
2.20500 67290.0
2.21500 63021.0
2.22500 58643.0
2.23500 54475.0
2.24500 51687.0
2.25500 48423.0
2.26500 45397.0
2.27500 43705.0
2.28500 41793.0
2.29500 40153.0
2.30500 38514.0
2.31500 37285.0
2.32500 35127.0
2.33500 33955.0
2.34500 32192.0
2.35500 30598.0
2.36500 29763.0
2.37500 29167.0
2.38500 28187.0
2.39500 27514.0
2.40500 26630.0
2.41500 26458.0
2.42500 25007.0
2.43500 23822.0
2.44500 23276.0
2.45500 22757.0
2.46500 22212.0
2.47500 22186.0
2.48500 21446.0
2.49500 20531.0
2.50500 20312.0
2.51500 19966.0
2.52500 19388.0
2.53500 18748.0
2.54500 18459.0
2.55500 18867.0
2.56500 18552.0
2.57500 18075.0
2.58500 17654.0
2.59500 17186.0
2.60500 17125.0
2.61500 17021.0
2.62500 16750.0
2.63500 16414.0
2.64500 16111.0
2.65500 16010.0
2.66500 15473.0
2.67500 15575.0
2.68500 15280.0
2.69500 15140.0
2.70500 15206.0
2.71500 14999.0
2.72500 14861.0
2.73500 14566.0
2.74500 14086.0
2.75500 14203.0
2.76500 13807.0
2.77500 13659.0
2.78500 13469.0
2.79500 13397.0
2.80500 13443.0
2.81500 13394.0
2.82500 13245.0
2.83500 13036.0
2.84500 12868.0
2.85500 12841.0
2.86500 12685.0
2.87500 12650.0
2.88500 12795.0
2.89500 12701.0
2.90500 12379.0
2.91500 12366.0
2.92500 12132.0
2.93500 12279.0
2.94500 12050.0
2.95500 11922.0
2.96500 12034.0
2.97500 11684.0
2.98500 11901.0
2.99500 11689.0
3.00500 11516.0
3.01500 11600.0
3.02500 11322.0
3.03500 11504.0
3.04500 11101.0
3.05500 11077.0
3.06500 10774.0
3.07500 10253.0
3.08500 10203.0
3.09500 10069.0
3.10500 9990.0
3.11500 9945.0
3.12500 9819.0
3.13500 9943.0
3.14500 9718.0
3.15500 9671.0
3.16500 9843.0
3.17500 9983.0
3.18500 9912.0
3.19500 9757.0
3.20500 9643.0
3.21500 9492.0
3.22500 9572.0
3.23500 9642.0
3.24500 9519.0
3.25500 9602.0
3.26500 9616.0
3.27500 9928.0
3.28500 9577.0
3.29500 9931.0
3.30500 9824.0
3.31500 10135.0
3.32500 10030.0
3.33500 9899.0
3.34500 9747.0
3.35500 9586.0
3.36500 9950.0
3.37500 9632.0
3.38500 9568.0
3.39500 9764.0
3.40500 9688.0
3.41500 9899.0
3.42500 9613.0
3.43500 9728.0
3.44500 9759.0
3.45500 10151.0
3.46500 10369.0
3.47500 10730.0
3.48500 10786.0
3.49500 10848.0
3.50500 11258.0
3.51500 11332.0
3.52500 12177.0
3.53500 12690.0
3.54500 13052.0
3.55500 13942.0
3.56500 14969.0
3.57500 16647.0
3.58500 18373.0
3.59500 20373.0
3.60500 23434.0
3.61500 28555.0
3.62500 38132.0
3.63500 59509.0
3.64500 121546.0
3.65500 252713.0
3.66500 405519.0
3.67500 477929.0
3.68500 364661.0
3.69500 179760.0
3.70500 69724.0
3.71500 33551.0
3.72500 20354.0
3.73500 14265.0
3.74500 10707.0
3.75500 8449.0
3.76500 7260.0
3.77500 6316.0
3.78500 5521.0
3.79500 4858.0
3.80500 4530.0
3.81500 4170.0
3.82500 3801.0
3.83500 3633.0
3.84500 3587.0
3.85500 3308.0
3.86500 3108.0
3.87500 3074.0
3.88500 2890.0
3.89500 2885.0
3.90500 2992.0
3.91500 2987.0
3.92500 2972.0
3.93500 3002.0
3.94500 2727.0
3.95500 2644.0
3.96500 2708.0
3.97500 2684.0
3.98500 2529.0
3.99500 2556.0
4.00500 2428.0
4.01500 2287.0
4.02500 2210.0
4.03500 2291.0
4.04500 2257.0
4.05500 2206.0
4.06500 2158.0
4.07500 2135.0
4.08500 2146.0
4.09500 2166.0
4.10500 2117.0
4.11500 1994.0
4.12500 2009.0
4.13500 1931.0
4.14500 1924.0
4.15500 1922.0
4.16500 1894.0
4.17500 1752.0
4.18500 1791.0
4.19500 1734.0
4.20500 1727.0
4.21500 1742.0
4.22500 1663.0
4.23500 1689.0
4.24500 1643.0
4.25500 1575.0
4.26500 1616.0
4.27500 1636.0
4.28500 1623.0
4.29500 1506.0
4.30500 1523.0
4.31500 1479.0
4.32500 1430.0
4.33500 1383.0
4.34500 1419.0
4.35500 1413.0
4.36500 1343.0
4.37500 1346.0
4.38500 1274.0
4.39500 1244.0
4.40500 1279.0
4.41500 1265.0
4.42500 1170.0
4.43500 1206.0
4.44500 1138.0
4.45500 1179.0
4.46500 1116.0
4.47500 1036.0
4.48500 1051.0
4.49500 1108.0
4.50500 1013.0
4.51500 992.0
4.52500 929.0
4.53500 950.0
4.54500 878.0
4.55500 884.0
4.56500 850.0
4.57500 824.0
4.58500 806.0
4.59500 863.0
4.60500 887.0
4.61500 825.0
4.62500 793.0
4.63500 808.0
4.64500 813.0
4.65500 806.0
4.66500 756.0
4.67500 795.0
4.68500 771.0
4.69500 728.0
4.70500 657.0
4.71500 618.0
4.72500 625.0
4.73500 646.0
4.74500 672.0
4.75500 644.0
4.76500 584.0
4.77500 558.0
4.78500 530.0
4.79500 567.0
4.80500 517.0
4.81500 508.0
4.82500 506.0
4.83500 500.0
4.84500 557.0
4.85500 493.0
4.86500 504.0
4.87500 487.0
4.88500 496.0
4.89500 479.0
4.90500 415.0
4.91500 383.0
4.92500 417.0
4.93500 384.0
4.94500 350.0
4.95500 405.0
4.96500 358.0
4.97500 375.0
4.98500 426.0
4.99500 429.0
5.00500 439.0
5.01500 402.0
5.02500 364.0
5.03500 385.0
5.04500 396.0
5.05500 346.0
5.06500 461.0
5.07500 401.0
5.08500 404.0
5.09500 432.0
5.10500 468.0
5.11500 491.0
5.12500 336.0
5.13500 314.0
5.14500 342.0
5.15500 409.0
5.16500 303.0
5.17500 315.0
5.18500 281.0
5.19500 286.0
5.20500 310.0
5.21500 272.0
5.22500 253.0
5.23500 306.0
5.24500 314.0
5.25500 353.0
5.26500 320.0
5.27500 319.0
5.28500 364.0
5.29500 337.0
5.30500 322.0
5.31500 286.0
5.32500 300.0
5.33500 277.0
5.34500 235.0
5.35500 301.0
5.36500 253.0
5.37500 248.0
5.38500 204.0
5.39500 227.0
5.40500 271.0
5.41500 294.0
5.42500 304.0
5.43500 359.0
5.44500 394.0
5.45500 458.0
5.46500 460.0
5.47500 388.0
5.48500 330.0
5.49500 366.0
5.50500 314.0
5.51500 375.0
5.52500 323.0
5.53500 349.0
5.54500 282.0
5.55500 354.0
5.56500 308.0
5.57500 313.0
5.58500 265.0
5.59500 306.0
5.60500 312.0
5.61500 241.0
5.62500 230.0
5.63500 292.0
5.64500 240.0
5.65500 269.0
5.66500 263.0
5.67500 204.0
5.68500 234.0
5.69500 258.0
5.70500 231.0
5.71500 252.0
5.72500 222.0
5.73500 230.0
5.74500 256.0
5.75500 199.0
5.76500 241.0
5.77500 208.0
5.78500 206.0
5.79500 166.0
5.80500 145.0
5.81500 188.0
5.82500 235.0
5.83500 280.0
5.84500 222.0
5.85500 269.0
5.86500 290.0
5.87500 265.0
5.88500 252.0
5.89500 216.0
5.90500 217.0
5.91500 267.0
5.92500 284.0
5.93500 251.0
5.94500 219.0
5.95500 215.0
5.96500 200.0
5.97500 196.0
5.98500 203.0
5.99500 300.0
6.00500 265.0
6.01500 265.0
6.02500 260.0
6.03500 278.0
6.04500 230.0
6.05500 285.0
6.06500 220.0
6.07500 244.0
6.08500 254.0
6.09500 249.0
6.10500 254.0
6.11500 201.0
6.12500 224.0
6.13500 257.0
6.14500 200.0
6.15500 195.0
6.16500 218.0
6.17500 183.0
6.18500 194.0
6.19500 158.0
6.20500 186.0
6.21500 214.0
6.22500 182.0
6.23500 130.0
6.24500 167.0
6.25500 190.0
6.26500 200.0
6.27500 237.0
6.28500 251.0
6.29500 213.0
6.30500 171.0
6.31500 191.0
6.32500 260.0
6.33500 279.0
6.34500 254.0
6.35500 287.0
6.36500 267.0
6.37500 234.0
6.38500 251.0
6.39500 228.0
6.40500 242.0
6.41500 226.0
6.42500 229.0
6.43500 243.0
6.44500 250.0
6.45500 242.0
6.46500 225.0
6.47500 253.0
6.48500 279.0
6.49500 340.0
6.50500 356.0
6.51500 260.0
6.52500 256.0
6.53500 314.0
6.54500 245.0
6.55500 285.0
6.56500 240.0
6.57500 225.0
6.58500 232.0
6.59500 207.0
6.60500 200.0
6.61500 188.0
6.62500 208.0
6.63500 209.0
6.64500 194.0
6.65500 193.0
6.66500 212.0
6.67500 187.0
6.68500 210.0
6.69500 209.0
6.70500 208.0
6.71500 219.0
6.72500 264.0
6.73500 239.0
6.74500 235.0
6.75500 227.0
6.76500 250.0
6.77500 226.0
6.78500 359.0
6.79500 337.0
6.80500 368.0
6.81500 377.0
6.82500 334.0
6.83500 350.0
6.84500 312.0
6.85500 274.0
6.86500 267.0
6.87500 204.0
6.88500 265.0
6.89500 304.0
6.90500 272.0
6.91500 236.0
6.92500 229.0
6.93500 203.0
6.94500 288.0
6.95500 388.0
6.96500 432.0
6.97500 324.0
6.98500 255.0
6.99500 269.0
7.00500 263.0
7.01500 270.0
7.02500 267.0
7.03500 227.0
7.04500 305.0
7.05500 267.0
7.06500 261.0
7.07500 230.0
7.08500 229.0
7.09500 234.0
7.10500 218.0
7.11500 235.0
7.12500 261.0
7.13500 262.0
7.14500 221.0
7.15500 183.0
7.16500 192.0
7.17500 254.0
7.18500 264.0
7.19500 327.0
7.20500 325.0
7.21500 333.0
7.22500 276.0
7.23500 290.0
7.24500 282.0
7.25500 378.0
7.26500 292.0
7.27500 322.0
7.28500 316.0
7.29500 280.0
7.30500 342.0
7.31500 240.0
7.32500 311.0
7.33500 383.0
7.34500 336.0
7.35500 358.0
7.36500 361.0
7.37500 325.0
7.38500 296.0
7.39500 306.0
7.40500 241.0
7.41500 286.0
7.42500 254.0
7.43500 213.0
7.44500 203.0
7.45500 205.0
7.46500 208.0
7.47500 185.0
7.48500 209.0
7.49500 235.0
7.50500 238.0
7.51500 291.0
7.52500 329.0
7.53500 307.0
7.54500 238.0
7.55500 235.0
7.56500 256.0
7.57500 214.0
7.58500 252.0
7.59500 222.0
7.60500 258.0
7.61500 323.0
7.62500 336.0
7.63500 305.0
7.64500 279.0
7.65500 316.0
7.66500 291.0
7.67500 343.0
7.68500 303.0
7.69500 224.0
7.70500 225.0
7.71500 260.0
7.72500 277.0
7.73500 247.0
7.74500 232.0
7.75500 225.0
7.76500 216.0
7.77500 248.0
7.78500 216.0
7.79500 203.0
7.80500 232.0
7.81500 245.0
7.82500 255.0
7.83500 199.0
7.84500 214.0
7.85500 185.0
7.86500 251.0
7.87500 262.0
7.88500 273.0
7.89500 257.0
7.90500 226.0
7.91500 224.0
7.92500 180.0
7.93500 210.0
7.94500 241.0
7.95500 236.0
7.96500 220.0
7.97500 210.0
7.98500 219.0
7.99500 203.0
8.00500 244.0
8.01500 266.0
8.02500 242.0
8.03500 302.0
8.04500 286.0
8.05500 247.0
8.06500 204.0
8.07500 240.0
8.08500 199.0
8.09500 229.0
8.10500 254.0
8.11500 319.0
8.12500 249.0
8.13500 291.0
8.14500 229.0
8.15500 230.0
8.16500 205.0
8.17500 211.0
8.18500 178.0
8.19500 241.0
8.20500 247.0
8.21500 245.0
8.22500 238.0
8.23500 241.0
8.24500 203.0
8.25500 187.0
8.26500 172.0
8.27500 218.0
8.28500 173.0
8.29500 191.0
8.30500 172.0
8.31500 212.0
8.32500 214.0
8.33500 222.0
8.34500 231.0
8.35500 203.0
8.36500 210.0
8.37500 198.0
8.38500 181.0
8.39500 185.0
8.40500 190.0
8.41500 172.0
8.42500 179.0
8.43500 170.0
8.44500 171.0
8.45500 193.0
8.46500 170.0
8.47500 186.0
8.48500 212.0
8.49500 185.0
8.50500 193.0
8.51500 200.0
8.52500 213.0
8.53500 270.0
8.54500 304.0
8.55500 279.0
8.56500 253.0
8.57500 272.0
8.58500 284.0
8.59500 247.0
8.60500 213.0
8.61500 214.0
8.62500 170.0
8.63500 211.0
8.64500 183.0
8.65500 208.0
8.66500 195.0
8.67500 246.0
8.68500 229.0
8.69500 209.0
8.70500 202.0
8.71500 205.0
8.72500 254.0
8.73500 281.0
8.74500 247.0
8.75500 287.0
8.76500 297.0
8.77500 224.0
8.78500 280.0
8.79500 261.0
8.80500 215.0
8.81500 157.0
8.82500 172.0
8.83500 180.0
8.84500 235.0
8.85500 212.0
8.86500 230.0
8.87500 182.0
8.88500 232.0
8.89500 214.0
8.90500 235.0
8.91500 230.0
8.92500 293.0
8.93500 233.0
8.94500 200.0
8.95500 251.0
8.96500 250.0
8.97500 255.0
8.98500 236.0
8.99500 195.0
9.00500 212.0
9.01500 201.0
9.02500 305.0
9.03500 317.0
9.04500 398.0
9.05500 447.0
9.06500 447.0
9.07500 420.0
9.08500 415.0
9.09500 303.0
9.10500 283.0
9.11500 263.0
9.12500 339.0
9.13500 291.0
9.14500 231.0
9.15500 238.0
9.16500 279.0
9.17500 366.0
9.18500 270.0
9.19500 328.0
9.20500 242.0
9.21500 237.0
9.22500 329.0
9.23500 286.0
9.24500 266.0
9.25500 252.0
9.26500 315.0
9.27500 275.0
9.28500 283.0
9.29500 245.0
9.30500 189.0
9.31500 217.0
9.32500 205.0
9.33500 184.0
9.34500 204.0
9.35500 199.0
9.36500 171.0
9.37500 165.0
9.38500 166.0
9.39500 181.0
9.40500 204.0
9.41500 260.0
9.42500 201.0
9.43500 225.0
9.44500 209.0
9.45500 241.0
9.46500 235.0
9.47500 175.0
9.48500 256.0
9.49500 222.0
9.50500 205.0
9.51500 176.0
9.52500 183.0
9.53500 209.0
9.54500 297.0
9.55500 222.0
9.56500 214.0
9.57500 199.0
9.58500 218.0
9.59500 228.0
9.60500 243.0
9.61500 241.0
9.62500 188.0
9.63500 167.0
9.64500 164.0
9.65500 194.0
9.66500 209.0
9.67500 233.0
9.68500 242.0
9.69500 271.0
9.70500 276.0
9.71500 247.0
9.72500 314.0
9.73500 206.0
9.74500 167.0
9.75500 259.0
9.76500 188.0
9.77500 185.0
9.78500 207.0
9.79500 155.0
9.80500 174.0
9.81500 165.0
9.82500 180.0
9.83500 175.0
9.84500 199.0
9.85500 180.0
9.86500 178.0
9.87500 205.0
9.88500 169.0
9.89500 140.0
9.90500 169.0
9.91500 201.0
9.92500 167.0
9.93500 175.0
9.94500 157.0
9.95500 174.0
9.96500 145.0
9.97500 110.0
9.98500 128.0
9.99500 165.0
10.00500 198.0
10.01500 186.0
10.02500 177.0
10.03500 159.0
10.04500 225.0
10.05500 176.0
10.06500 180.0
10.07500 184.0
10.08500 211.0
10.09500 166.0
10.10500 174.0
10.11500 211.0
10.12500 218.0
10.13500 188.0
10.14500 175.0
10.15500 213.0
10.16500 213.0
10.17500 213.0
10.18500 231.0
10.19500 201.0
10.20500 210.0
10.21500 188.0
10.22500 157.0
10.23500 145.0
10.24500 136.0
10.25500 171.0
10.26500 140.0
10.27500 184.0
10.28500 158.0
10.29500 141.0
10.30500 163.0
10.31500 191.0
10.32500 206.0
10.33500 197.0
10.34500 155.0
10.35500 138.0
10.36500 135.0
10.37500 107.0
10.38500 97.0
10.39500 126.0
10.40500 129.0
10.41500 127.0
10.42500 114.0
10.43500 206.0
10.44500 174.0
10.45500 152.0
10.46500 164.0
10.47500 166.0
10.48500 168.0
10.49500 136.0
10.50500 142.0
10.51500 140.0
10.52500 151.0
10.53500 120.0
10.54500 129.0
10.55500 168.0
10.56500 169.0
10.57500 190.0
10.58500 176.0
10.59500 178.0
10.60500 177.0
10.61500 146.0
10.62500 134.0
10.63500 130.0
10.64500 221.0
10.65500 226.0
10.66500 205.0
10.67500 198.0
10.68500 213.0
10.69500 154.0
10.70500 184.0
10.71500 173.0
10.72500 168.0
10.73500 206.0
10.74500 227.0
10.75500 274.0
10.76500 309.0
10.77500 235.0
10.78500 290.0
10.79500 216.0
10.80500 187.0
10.81500 160.0
10.82500 218.0
10.83500 229.0
10.84500 192.0
10.85500 300.0
10.86500 275.0
10.87500 264.0
10.88500 292.0
10.89500 275.0
10.90500 208.0
10.91500 179.0
10.92500 176.0
10.93500 217.0
10.94500 231.0
10.95500 252.0
10.96500 286.0
10.97500 253.0
10.98500 351.0
10.99500 314.0
11.00500 247.0
11.01500 184.0
11.02500 174.0
11.03500 168.0
11.04500 175.0
11.05500 154.0
11.06500 166.0
11.07500 172.0
11.08500 180.0
11.09500 200.0
11.10500 168.0
11.11500 189.0
11.12500 136.0
11.13500 129.0
11.14500 152.0
11.15500 172.0
11.16500 164.0
11.17500 205.0
11.18500 176.0
11.19500 198.0
11.20500 182.0
11.21500 187.0
11.22500 177.0
11.23500 187.0
11.24500 173.0
11.25500 141.0
11.26500 128.0
11.27500 118.0
11.28500 142.0
11.29500 152.0
11.30500 166.0
11.31500 166.0
11.32500 169.0
11.33500 102.0
11.34500 148.0
11.35500 94.0
11.36500 117.0
11.37500 136.0
11.38500 147.0
11.39500 162.0
11.40500 154.0
11.41500 173.0
11.42500 186.0
11.43500 188.0
11.44500 202.0
11.45500 225.0
11.46500 240.0
11.47500 214.0
11.48500 192.0
11.49500 203.0
11.50500 188.0
11.51500 147.0
11.52500 153.0
11.53500 168.0
11.54500 148.0
11.55500 148.0
11.56500 175.0
11.57500 219.0
11.58500 253.0
11.59500 175.0
11.60500 230.0
11.61500 201.0
11.62500 137.0
11.63500 168.0
11.64500 188.0
11.65500 159.0
11.66500 134.0
11.67500 153.0
11.68500 133.0
11.69500 140.0
11.70500 145.0
11.71500 149.0
11.72500 166.0
11.73500 173.0
11.74500 144.0
11.75500 158.0
11.76500 141.0
11.77500 166.0
11.78500 186.0
11.79500 218.0
11.80500 143.0
11.81500 136.0
11.82500 153.0
11.83500 157.0
11.84500 178.0
11.85500 127.0
11.86500 106.0
11.87500 123.0
11.88500 131.0
11.89500 142.0
11.90500 104.0
11.91500 87.0
11.92500 87.0
11.93500 125.0
11.94500 158.0
11.95500 185.0
11.96500 176.0
11.97500 213.0
11.98500 190.0
11.99500 232.0
