0.00390 24.0
0.00890 37.0
0.01390 36.0
0.01890 24.0
0.02390 48.0
0.02890 48.0
0.03390 37.0
0.03890 57.0
0.04390 37.0
0.04890 47.0
0.05390 47.0
0.05890 31.0
0.06390 53.0
0.06890 59.0
0.07390 82.0
0.07890 53.0
0.08390 48.0
0.08890 52.0
0.09390 68.0
0.09890 86.0
0.10390 74.0
0.10890 81.0
0.11390 72.0
0.11890 75.0
0.12390 77.0
0.12890 53.0
0.13390 51.0
0.13890 62.0
0.14390 80.0
0.14890 73.0
0.15390 63.0
0.15890 62.0
0.16390 69.0
0.16890 94.0
0.17390 71.0
0.17890 76.0
0.18390 84.0
0.18890 91.0
0.19390 116.0
0.19890 89.0
0.20390 88.0
0.20890 101.0
0.21390 105.0
0.21890 120.0
0.22390 112.0
0.22890 119.0
0.23390 106.0
0.23890 122.0
0.24390 148.0
0.24890 128.0
0.25390 150.0
0.25890 147.0
0.26390 135.0
0.26890 171.0
0.27390 205.0
0.27890 163.0
0.28390 188.0
0.28890 205.0
0.29390 191.0
0.29890 214.0
0.30390 255.0
0.30890 238.0
0.31390 249.0
0.31890 268.0
0.32390 264.0
0.32890 259.0
0.33390 273.0
0.33890 335.0
0.34390 328.0
0.34890 339.0
0.35390 362.0
0.35890 356.0
0.36390 388.0
0.36890 414.0
0.37390 420.0
0.37890 412.0
0.38390 454.0
0.38890 513.0
0.39390 520.0
0.39890 470.0
0.40390 506.0
0.40890 524.0
0.41390 566.0
0.41890 595.0
0.42390 659.0
0.42890 650.0
0.43390 701.0
0.43890 711.0
0.44390 806.0
0.44890 795.0
0.45390 787.0
0.45890 802.0
0.46390 848.0
0.46890 903.0
0.47390 1023.0
0.47890 995.0
0.48390 1124.0
0.48890 1139.0
0.49390 1163.0
0.49890 1251.0
0.50390 1249.0
0.50890 1329.0
0.51390 1453.0
0.51890 1477.0
0.52390 1568.0
0.52890 1649.0
0.53390 1745.0
0.53890 1817.0
0.54390 1911.0
0.54890 2027.0
0.55390 2165.0
0.55890 2141.0
0.56390 2335.0
0.56890 2394.0
0.57390 2494.0
0.57890 2660.0
0.58390 2730.0
0.58890 2800.0
0.59390 2954.0
0.59890 3146.0
0.60390 3115.0
0.60890 3304.0
0.61390 3415.0
0.61890 3587.0
0.62390 3608.0
0.62890 3889.0
0.63390 3934.0
0.63890 4063.0
0.64390 4200.0
0.64890 4362.0
0.65390 4528.0
0.65890 4625.0
0.66390 4936.0
0.66890 4994.0
0.67390 5344.0
0.67890 5384.0
0.68390 5652.0
0.68890 5821.0
0.69390 6084.0
0.69890 6416.0
0.70390 6865.0
0.70890 7187.0
0.71390 7553.0
0.71890 8037.0
0.72390 8677.0
0.72890 9384.0
0.73390 10163.0
0.73890 11276.0
0.74390 12802.0
0.74890 14194.0
0.75390 16601.0
0.75890 19510.0
0.76390 23402.0
0.76890 28550.0
0.77390 35647.0
0.77890 45973.0
0.78390 60974.0
0.78890 81819.0
0.79390 117306.0
0.79890 174426.0
0.80390 300367.0
0.80890 694871.0
0.81390 1661809.0
0.81890 2971440.0
0.82390 3996115.0
0.82890 4401392.0
0.83390 3856562.0
0.83890 2618531.0
0.84390 1253406.0
0.84890 464028.0
0.85390 211028.0
0.85890 124768.0
0.86390 86265.0
0.86890 61287.0
0.87390 45455.0
0.87890 35400.0
0.88390 27662.0
0.88890 22412.0
0.89390 18503.0
0.89890 15472.0
0.90390 13496.0
0.90890 11725.0
0.91390 10383.0
0.91890 9171.0
0.92390 8406.0
0.92890 7913.0
0.93390 7292.0
0.93890 6697.0
0.94390 6275.0
0.94890 6034.0
0.95390 5642.0
0.95890 5324.0
0.96390 4947.0
0.96890 4833.0
0.97390 4509.0
0.97890 4393.0
0.98390 4245.0
0.98890 4003.0
0.99390 3913.0
0.99890 3823.0
1.00390 3611.0
1.00890 3424.0
1.01390 3440.0
1.01890 3097.0
1.02390 3091.0
1.02890 2919.0
1.03390 2851.0
1.03890 2756.0
1.04390 2534.0
1.04890 2555.0
1.05390 2523.0
1.05890 2288.0
1.06390 2234.0
1.06890 2103.0
1.07390 1979.0
1.07890 1914.0
1.08390 1825.0
1.08890 1744.0
1.09390 1673.0
1.09890 1649.0
1.10390 1536.0
1.10890 1497.0
1.11390 1371.0
1.11890 1288.0
1.12390 1223.0
1.12890 1241.0
1.13390 1141.0
1.13890 1049.0
1.14390 941.0
1.14890 953.0
1.15390 882.0
1.15890 885.0
1.16390 770.0
1.16890 692.0
1.17390 730.0
1.17890 694.0
1.18390 636.0
1.18890 604.0
1.19390 568.0
1.19890 602.0
1.20390 538.0
1.20890 451.0
1.21390 462.0
1.21890 459.0
1.22390 425.0
1.22890 396.0
1.23390 357.0
1.23890 370.0
1.24390 401.0
1.24890 336.0
1.25390 331.0
1.25890 317.0
1.26390 314.0
1.26890 290.0
1.27390 264.0
1.27890 272.0
1.28390 256.0
1.28890 249.0
1.29390 223.0
1.29890 223.0
1.30390 233.0
1.30890 209.0
1.31390 186.0
1.31890 168.0
1.32390 171.0
1.32890 160.0
1.33390 167.0
1.33890 141.0
1.34390 146.0
1.34890 146.0
1.35390 120.0
1.35890 110.0
1.36390 109.0
1.36890 123.0
1.37390 123.0
1.37890 110.0
1.38390 102.0
1.38890 86.0
1.39390 116.0
1.39890 96.0
1.40390 100.0
1.40890 96.0
1.41390 80.0
1.41890 86.0
1.42390 69.0
1.42890 68.0
1.43390 71.0
1.43890 66.0
1.44390 62.0
1.44890 72.0
1.45390 86.0
1.45890 64.0
1.46390 49.0
1.46890 53.0
1.47390 70.0
1.47890 63.0
1.48390 59.0
1.48890 55.0
1.49390 60.0
1.49890 59.0
1.50390 50.0
1.50890 47.0
1.51390 46.0
1.51890 40.0
1.52390 49.0
1.52890 67.0
1.53390 55.0
1.53890 55.0
1.54390 50.0
1.54890 54.0
1.55390 46.0
1.55890 49.0
1.56390 64.0
1.56890 55.0
1.57390 48.0
1.57890 45.0
1.58390 46.0
1.58890 45.0
1.59390 45.0
1.59890 51.0
1.60390 60.0
1.60890 26.0
1.61390 33.0
1.61890 57.0
1.62390 38.0
1.62890 41.0
1.63390 31.0
1.63890 40.0
1.64390 34.0
