0.00500 482066956288.0
0.01500 519839776768.0
0.02500 387590946816.0
0.03500 229708414976.0
0.04500 127436496896.0
0.05500 78913044480.0
0.06500 72277811200.0
0.07500 80531922944.0
0.08500 91363360768.0
0.09500 102126010368.0
0.10500 112274038784.0
0.11500 123130445824.0
0.12500 133850521600.0
0.13500 143822307328.0
0.14500 153212239872.0
0.15500 162147598336.0
0.16500 172099616768.0
0.17500 181492793344.0
0.18500 189875470336.0
0.19500 199705722880.0
0.20500 209993777152.0
0.21500 217920110592.0
0.22500 225774911488.0
0.23500 233634955264.0
0.24500 240538222592.0
0.25500 250001981440.0
0.26500 256606093312.0
0.27500 264118157312.0
0.28500 271680651264.0
0.29500 277991129088.0
0.30500 287136022528.0
0.31500 293528862720.0
0.32500 300982501376.0
0.33500 307730120704.0
0.34500 314745520128.0
0.35500 322518024192.0
0.36500 328582725632.0
0.37500 334349697024.0
0.38500 339542704128.0
0.39500 345820233728.0
0.40500 353747402752.0
0.41500 360849604608.0
0.42500 365172654080.0
0.43500 371788840960.0
0.44500 375135764480.0
0.45500 379863367680.0
0.46500 382339809280.0
0.47500 384542539776.0
0.48500 389639536640.0
0.49500 392741257216.0
0.50500 396411961344.0
0.51500 401996742656.0
0.52500 403513049088.0
0.53500 411363442688.0
0.54500 412428304384.0
0.55500 414756765696.0
0.56500 417832796160.0
0.57500 420168335360.0
0.58500 422536642560.0
0.59500 423986757632.0
0.60500 427003609088.0
0.61500 428506939392.0
0.62500 429800292352.0
0.63500 431471230976.0
0.64500 429496696832.0
0.65500 430914502656.0
0.66500 429537361920.0
0.67500 428490817536.0
0.68500 425926688768.0
0.69500 423205863424.0
0.70500 416481509376.0
0.71500 408070717440.0
0.72500 397864468480.0
0.73500 379854618624.0
0.74500 350700601344.0
0.75500 308317978624.0
0.76500 260651794432.0
0.77500 215598612480.0
0.78500 180227817472.0
0.79500 153966395392.0
0.80500 133717999616.0
0.81500 118798688256.0
0.82500 105791840256.0
0.83500 94363058176.0
0.84500 85673926656.0
0.85500 77574209536.0
0.86500 71118774272.0
0.87500 64776744960.0
0.88500 59269087232.0
0.89500 55191244800.0
0.90500 50893918208.0
0.91500 47296933888.0
0.92500 43996909568.0
0.93500 41122123776.0
0.94500 38515724288.0
0.95500 36030017536.0
0.96500 33847699456.0
0.97500 31802296320.0
0.98500 30008580096.0
0.99500 28281739264.0
1.00500 26386241536.0
1.01500 25293621248.0
1.02500 23779086336.0
1.03500 22578909184.0
1.04500 21473785856.0
1.05500 20070866944.0
1.06500 19276183552.0
1.07500 18413518848.0
1.08500 17322323968.0
1.09500 16746310656.0
1.10500 15947361280.0
1.11500 14959041536.0
1.12500 14569363456.0
1.13500 13912124416.0
1.14500 13030355968.0
1.15500 12895344640.0
1.16500 12368081920.0
1.17500 11520913408.0
1.18500 11351288832.0
1.19500 10978616320.0
1.20500 10207511552.0
1.21500 10019385344.0
1.22500 9738566656.0
1.23500 9101032448.0
1.24500 8879593472.0
1.25500 8741562368.0
1.26500 8151702528.0
1.27500 7752612864.0
1.28500 7761045504.0
1.29500 7410120192.0
1.30500 6929092096.0
1.31500 6925120512.0
1.32500 6711051776.0
1.33500 6209899520.0
1.34500 6151064576.0
1.35500 6179146240.0
1.36500 5688510464.0
1.37500 5436640768.0
1.38500 5494049280.0
1.39500 5276778496.0
1.40500 4867185664.0
1.41500 4923922944.0
1.42500 4888358912.0
1.43500 4505743360.0
1.44500 4345405440.0
1.45500 4470249472.0
1.46500 4214757376.0
1.47500 3920540928.0
1.48500 4008814336.0
1.49500 3996689152.0
1.50500 3636631552.0
1.51500 3545575168.0
1.52500 3697284352.0
1.53500 3475048704.0
1.54500 3242394368.0
1.55500 3299592960.0
1.56500 3320626432.0
1.57500 3063358208.0
1.58500 2948821248.0
1.59500 3076350464.0
1.60500 2954667008.0
1.61500 2682938368.0
1.62500 2711216128.0
1.63500 2793391872.0
1.64500 2573324032.0
1.65500 2444466176.0
1.66500 2541214464.0
1.67500 2518251008.0
1.68500 2296225024.0
1.69500 2279555072.0
1.70500 2441571328.0
1.71500 2282170112.0
1.72500 2095218688.0
1.73500 2190274816.0
1.74500 2225572864.0
1.75500 2037656448.0
1.76500 1926615552.0
1.77500 2044564992.0
1.78500 2029223552.0
1.79500 1847949952.0
1.80500 1845852160.0
1.81500 1946781952.0
1.82500 1874801152.0
1.83500 1733440768.0
1.84500 1796834816.0
1.85500 1876101760.0
1.86500 1754390272.0
1.87500 1633336064.0
1.88500 1743468032.0
1.89500 1780388352.0
1.90500 1630217472.0
1.91500 1593716608.0
1.92500 1731482880.0
1.93500 1711554176.0
1.94500 1550516992.0
1.95500 1600988800.0
1.96500 1772193152.0
1.97500 1704100224.0
1.98500 1595422848.0
1.99500 1713274368.0
2.00500 1843782400.0
2.01500 1757369088.0
2.02500 1682605312.0
2.03500 1923203200.0
2.04500 2061514880.0
2.05500 1962403200.0
2.06500 2034369920.0
2.07500 2423544576.0
2.08500 2630312704.0
2.09500 2625921536.0
2.10500 3114697216.0
2.11500 4055216384.0
2.12500 4739684352.0
2.13500 6197424640.0
2.14500 11197985792.0
2.15500 20029693952.0
2.16500 29107357696.0
2.17500 32332914688.0
2.18500 28303151104.0
2.19500 19905101824.0
2.20500 12202639360.0
2.21500 7247670272.0
2.22500 4896875520.0
2.23500 3633149184.0
2.24500 2784818944.0
2.25500 2160850432.0
2.26500 1738978816.0
2.27500 1454481920.0
2.28500 1220582784.0
2.29500 1053000576.0
2.30500 892984192.0
2.31500 761231488.0
2.32500 688411648.0
2.33500 609172608.0
2.34500 549652480.0
2.35500 496537440.0
2.36500 458148608.0
2.37500 434821632.0
2.38500 391719840.0
2.39500 371469568.0
2.40500 345583328.0
2.41500 332003904.0
2.42500 323067488.0
2.43500 304383520.0
2.44500 289811168.0
2.45500 280259392.0
2.46500 265253488.0
2.47500 252736928.0
2.48500 239856736.0
2.49500 234402592.0
2.50500 235661232.0
2.51500 217872320.0
2.52500 210320416.0
2.53500 209187632.0
2.54500 203020240.0
2.55500 194992848.0
2.56500 187706672.0
2.57500 192713296.0
2.58500 185720800.0
2.59500 171679856.0
2.60500 173218208.0
2.61500 175399872.0
2.62500 171554000.0
2.63500 162883296.0
2.64500 162212016.0
2.65500 165834128.0
2.66500 155960720.0
2.67500 147248064.0
2.68500 144381136.0
2.69500 147429872.0
2.70500 142898736.0
2.71500 132927424.0
2.72500 131976448.0
2.73500 135892240.0
2.74500 130046512.0
2.75500 119739568.0
2.76500 121515664.0
2.77500 119571752.0
2.78500 115530088.0
2.79500 108579536.0
2.80500 111935936.0
2.81500 111432480.0
2.82500 107712472.0
2.83500 101083584.0
2.84500 102565992.0
2.85500 102761776.0
2.86500 98608232.0
2.87500 95797248.0
2.88500 96580408.0
2.89500 96034992.0
2.90500 90790624.0
2.91500 89280240.0
2.92500 90468968.0
2.93500 94762360.0
2.94500 86804896.0
2.95500 85168648.0
2.96500 87210464.0
2.97500 83784136.0
2.98500 80106080.0
2.99500 80050144.0
3.00500 81812248.0
3.01500 81462624.0
3.02500 74022608.0
3.03500 68456576.0
3.04500 71938840.0
3.05500 71351472.0
3.06500 65855364.0
3.07500 65743484.0
3.08500 67743344.0
3.09500 68232816.0
3.10500 63533856.0
3.11500 63645736.0
3.12500 68302736.0
3.13500 60778808.0
3.14500 61939564.0
3.15500 64219120.0
3.16500 64680624.0
3.17500 61282272.0
3.18500 57198648.0
3.19500 56821056.0
3.20500 56065864.0
3.21500 53688416.0
3.22500 51436832.0
3.23500 48947500.0
3.24500 50975324.0
3.25500 51324952.0
3.26500 47199376.0
3.27500 47730804.0
3.28500 49912464.0
3.29500 47982536.0
3.30500 44164632.0
3.31500 43801020.0
3.32500 44793956.0
3.33500 43465380.0
3.34500 39032136.0
3.35500 40570484.0
3.36500 40094996.0
3.37500 39661460.0
3.38500 38472736.0
3.39500 39955144.0
3.40500 40108980.0
3.41500 37661604.0
3.42500 36962356.0
3.43500 37689576.0
3.44500 37815440.0
3.45500 36990324.0
3.46500 32668960.0
3.47500 34612876.0
3.48500 33689864.0
3.49500 31815876.0
3.50500 31382340.0
3.51500 30822940.0
3.52500 32990616.0
3.53500 33689864.0
3.54500 31438280.0
3.55500 30906850.0
3.56500 31494220.0
3.57500 28920980.0
3.58500 27340676.0
3.59500 25844280.0
3.60500 29354516.0
3.61500 28431504.0
3.62500 25704430.0
3.63500 25830296.0
3.64500 27774210.0
3.65500 27802180.0
3.66500 24487736.0
3.67500 25005180.0
3.68500 29997824.0
3.69500 26096010.0
3.70500 26291800.0
3.71500 27606390.0
3.72500 29522336.0
3.73500 28851056.0
3.74500 27956016.0
3.75500 25844280.0
3.76500 28053910.0
3.77500 26235860.0
3.78500 22417956.0
3.79500 23606680.0
3.80500 23662620.0
3.81500 23872396.0
3.82500 23243070.0
3.83500 22348030.0
3.84500 22879460.0
3.85500 23900364.0
3.86500 21327124.0
3.87500 20152384.0
3.88500 21439004.0
3.89500 19928624.0
3.90500 19103510.0
3.91500 22026376.0
3.92500 22585776.0
3.93500 22124270.0
3.94500 21704720.0
3.95500 22348030.0
3.96500 23410890.0
3.97500 23103220.0
3.98500 21229230.0
3.99500 20725770.0
4.00500 26068040.0
4.01500 25830296.0
4.02500 25061120.0
4.03500 25480670.0
4.04500 27732256.0
4.05500 29885944.0
4.06500 32137530.0
4.07500 37325964.0
4.08500 49353064.0
4.09500 61156404.0
4.10500 82749248.0
4.11500 131766672.0
4.12500 249450448.0
4.13500 412739296.0
4.14500 559665728.0
4.15500 611256384.0
4.16500 548114112.0
4.17500 417382336.0
4.18500 291503328.0
4.19500 205062048.0
4.20500 155457264.0
4.21500 130522008.0
4.22500 104957424.0
4.23500 87364296.0
4.24500 70778088.0
4.25500 63142276.0
4.26500 54443604.0
4.27500 46667944.0
4.28500 37843408.0
4.29500 33899640.0
4.30500 32305350.0
4.31500 28207744.0
4.32500 25760370.0
4.33500 25270896.0
4.34500 23914350.0
4.35500 20627876.0
4.36500 19215390.0
4.37500 17103656.0
4.38500 15789065.0
4.39500 15173725.0
4.40500 13845150.0
4.41500 12236875.0
4.42500 13733270.0
4.43500 12936125.0
4.44500 11174015.0
4.45500 10810405.0
4.46500 10516720.0
4.47500 10866345.0
4.48500 12152965.0
4.49500 9523785.0
4.50500 9971305.0
4.51500 10488750.0
4.52500 9943335.0
4.53500 8782580.0
4.54500 9425890.0
4.55500 9383935.0
4.56500 8614760.0
4.57500 8516865.0
4.58500 8474910.0
4.59500 7915510.0
4.60500 9244085.0
4.61500 8181225.0
4.62500 7202275.0
4.63500 6894605.0
4.64500 6922575.0
4.65500 6083475.0
4.66500 6335205.0
4.67500 6544980.0
4.68500 7509945.0
4.69500 8502880.0
4.70500 7481975.0
4.71500 5454150.0
4.72500 6279265.0
4.73500 6656860.0
4.74500 6656860.0
4.75500 6782725.0
4.76500 5943625.0
4.77500 6139415.0
4.78500 6265280.0
4.79500 5524075.0
4.80500 5663925.0
4.81500 5146480.0
4.82500 5649940.0
4.83500 6167385.0
4.84500 7356110.0
4.85500 6489040.0
4.86500 7481975.0
4.87500 8377015.0
4.88500 7495960.0
4.89500 6670845.0
4.90500 7733705.0
4.91500 9985290.0
4.92500 7216260.0
4.93500 7831600.0
4.94500 7775660.0
4.95500 7160320.0
4.96500 7635810.0
4.97500 6726785.0
4.98500 4824825.0
4.99500 5370240.0
5.00500 6167385.0
5.01500 6447085.0
5.02500 7062425.0
5.03500 5496105.0
5.04500 5006630.0
5.05500 5580015.0
5.06500 6307235.0
5.07500 6796710.0
5.08500 6363175.0
5.09500 6153400.0
5.10500 8460925.0
5.11500 8852505.0
5.12500 5719865.0
5.13500 5901670.0
5.14500 6125430.0
5.15500 5384225.0
5.16500 5747835.0
5.17500 6307235.0
5.18500 5510090.0
5.19500 5412195.0
5.20500 5202420.0
5.21500 4377305.0
5.22500 4796855.0
5.23500 4838810.0
5.24500 4531140.0
5.25500 5286330.0
5.26500 4712945.0
5.27500 5412195.0
5.28500 5342270.0
5.29500 5873700.0
5.30500 5412195.0
5.31500 5649940.0
5.32500 5146480.0
5.33500 5216405.0
5.34500 6824680.0
5.35500 6475055.0
5.36500 5216405.0
5.37500 6405130.0
5.38500 6824680.0
5.39500 6922575.0
5.40500 6195355.0
5.41500 5188435.0
5.42500 5272345.0
5.43500 5146480.0
5.44500 5663925.0
5.45500 6880620.0
5.46500 8293105.0
5.47500 6922575.0
5.48500 6530995.0
5.49500 5440165.0
5.50500 4782870.0
5.51500 5496105.0
5.52500 5887685.0
5.53500 4810840.0
5.54500 5789790.0
5.55500 5272345.0
5.56500 4950690.0
5.57500 4615050.0
5.58500 7663780.0
5.59500 8600775.0
5.60500 5859715.0
5.61500 5412195.0
5.62500 5146480.0
5.63500 5887685.0
5.64500 6335205.0
5.65500 8558820.0
5.66500 8223180.0
5.67500 11104090.0
5.68500 7370095.0
5.69500 5020615.0
5.70500 6726785.0
5.71500 6125430.0
5.72500 4587080.0
5.73500 4643020.0
5.74500 4880765.0
5.75500 4419260.0
5.76500 3929785.0
5.77500 4237455.0
5.78500 3328430.0
5.79500 3440310.0
5.80500 3160610.0
5.81500 3999710.0
5.82500 3706025.0
5.83500 4223470.0
5.84500 4307380.0
5.85500 4083620.0
5.86500 4195500.0
5.87500 4433245.0
5.88500 4293395.0
5.89500 4754900.0
5.90500 5635955.0
5.91500 8307090.0
5.92500 6377160.0
5.93500 6237310.0
5.94500 4978660.0
5.95500 6111445.0
5.96500 4978660.0
5.97500 3873845.0
5.98500 4405275.0
5.99500 3636100.0
6.00500 4573095.0
6.01500 3733995.0
6.02500 3706025.0
6.03500 3034745.0
6.04500 4265425.0
6.05500 4391290.0
6.06500 5062570.0
6.07500 4950690.0
6.08500 4712945.0
6.09500 5943625.0
6.10500 8027390.0
6.11500 10181080.0
6.12500 13998985.0
6.13500 24963224.0
6.14500 41269736.0
6.15500 60429184.0
6.16500 73575088.0
6.17500 75644864.0
6.18500 63743632.0
6.19500 49562840.0
6.20500 35913480.0
6.21500 27942030.0
6.22500 21271184.0
6.23500 16698090.0
6.24500 13901090.0
6.25500 12950110.0
6.26500 11327850.0
6.27500 9090250.0
6.28500 8139270.0
6.29500 7202275.0
6.30500 6447085.0
6.31500 5398210.0
6.32500 5859715.0
6.33500 5258360.0
6.34500 5789790.0
6.35500 4824825.0
6.36500 4391290.0
6.37500 4657005.0
6.38500 5272345.0
6.39500 5789790.0
6.40500 5216405.0
6.41500 5691895.0
6.42500 5607985.0
6.43500 5929640.0
6.44500 6433100.0
6.45500 6670845.0
6.46500 6880620.0
6.47500 6363175.0
6.48500 5510090.0
6.49500 4447230.0
6.50500 5006630.0
6.51500 5020615.0
6.52500 5580015.0
6.53500 4195500.0
6.54500 4181515.0
6.55500 4209485.0
6.56500 4447230.0
6.57500 5286330.0
6.58500 4251440.0
6.59500 2978805.0
6.60500 3678055.0
6.61500 3594145.0
6.62500 3286475.0
6.63500 3048730.0
6.64500 4195500.0
6.65500 5020615.0
6.66500 4782870.0
6.67500 3426325.0
6.68500 2810985.0
6.69500 2685120.0
6.70500 2251585.0
6.71500 2167675.0
6.72500 2167675.0
6.73500 2545270.0
6.74500 2741060.0
6.75500 3034745.0
6.76500 3622115.0
6.77500 3915800.0
6.78500 3650085.0
6.79500 3216550.0
6.80500 3943770.0
6.81500 3090685.0
6.82500 2852940.0
6.83500 3020760.0
6.84500 3174595.0
6.85500 3202565.0
6.86500 3538205.0
6.87500 3985725.0
6.88500 2741060.0
6.89500 3258505.0
6.90500 3118655.0
6.91500 2755045.0
6.92500 3692040.0
6.93500 2964820.0
6.94500 3286475.0
6.95500 4293395.0
6.96500 3943770.0
6.97500 3747980.0
6.98500 3370385.0
6.99500 3566175.0
7.00500 3104670.0
7.01500 3160610.0
7.02500 2531285.0
7.03500 2489330.0
7.04500 3356400.0
7.05500 5188435.0
7.06500 6111445.0
7.07500 5146480.0
7.08500 5845730.0
7.09500 6433100.0
7.10500 5202420.0
7.11500 4615050.0
7.12500 4419260.0
7.13500 4866780.0
7.14500 5649940.0
7.15500 6642875.0
7.16500 6544980.0
7.17500 5747835.0
7.18500 6740770.0
7.19500 6223325.0
7.20500 5062570.0
7.21500 6349190.0
7.22500 5132495.0
7.23500 3873845.0
7.24500 4377305.0
7.25500 5202420.0
7.26500 5412195.0
7.27500 5454150.0
7.28500 3384370.0
7.29500 4615050.0
7.30500 3831890.0
7.31500 3146625.0
7.32500 6125430.0
7.33500 7104380.0
7.34500 6377160.0
7.35500 6670845.0
7.36500 6293250.0
7.37500 7398065.0
7.38500 8572805.0
7.39500 8265135.0
7.40500 5510090.0
7.41500 4195500.0
7.42500 4251440.0
7.43500 4251440.0
7.44500 5076555.0
7.45500 5020615.0
7.46500 4405275.0
7.47500 4279410.0
7.48500 5300315.0
7.49500 4684975.0
7.50500 4139560.0
7.51500 4139560.0
7.52500 2433390.0
7.53500 2950835.0
7.54500 3901815.0
7.55500 3524220.0
7.56500 3636100.0
7.57500 4139560.0
7.58500 3803920.0
7.59500 3202565.0
7.60500 2223615.0
7.61500 1706170.0
7.62500 2321510.0
7.63500 2629180.0
7.64500 2111735.0
7.65500 2461360.0
7.66500 3062715.0
7.67500 3062715.0
7.68500 2699105.0
7.69500 2755045.0
7.70500 2265570.0
7.71500 1971885.0
7.72500 2027825.0
7.73500 1832035.0
7.74500 2321510.0
7.75500 2139705.0
7.76500 1860005.0
7.77500 1804065.0
7.78500 1566320.0
7.79500 1580305.0
7.80500 1692185.0
7.81500 1356545.0
7.82500 1650230.0
7.83500 1370530.0
7.84500 1846020.0
7.85500 1929930.0
7.86500 2069780.0
7.87500 2489330.0
7.88500 2153690.0
7.89500 2573240.0
7.90500 2922865.0
7.91500 2978805.0
7.92500 3314445.0
7.93500 3482265.0
7.94500 2657150.0
7.95500 2293540.0
7.96500 2447375.0
7.97500 2377450.0
7.98500 2531285.0
7.99500 2629180.0
8.00500 2936850.0
8.01500 1985870.0
8.02500 2125720.0
8.03500 1873990.0
8.04500 2111735.0
8.05500 2293540.0
8.06500 1734140.0
8.07500 1943915.0
8.08500 2433390.0
8.09500 2097750.0
8.10500 3048730.0
8.11500 2783015.0
8.12500 2755045.0
8.13500 2433390.0
8.14500 2377450.0
8.15500 1832035.0
8.16500 2447375.0
8.17500 3132640.0
8.18500 3929785.0
8.19500 5006630.0
8.20500 4615050.0
8.21500 4377305.0
8.22500 4265425.0
8.23500 3510235.0
8.24500 2866925.0
8.25500 2601210.0
8.26500 2167675.0
8.27500 2461360.0
8.28500 2615195.0
8.29500 2377450.0
8.30500 2531285.0
8.31500 2797000.0
8.32500 2517300.0
8.33500 2783015.0
8.34500 3258505.0
8.35500 2251585.0
8.36500 3020760.0
8.37500 3104670.0
8.38500 3230535.0
8.39500 2545270.0
8.40500 3370385.0
8.41500 3202565.0
8.42500 2657150.0
8.43500 2027825.0
8.44500 2181660.0
8.45500 2922865.0
8.46500 3188580.0
8.47500 2209630.0
8.48500 2517300.0
8.49500 2377450.0
8.50500 2265570.0
8.51500 1985870.0
8.52500 2349480.0
8.53500 2489330.0
8.54500 2489330.0
8.55500 2797000.0
8.56500 2727075.0
8.57500 2685120.0
8.58500 2992790.0
8.59500 2195645.0
8.60500 2125720.0
8.61500 2139705.0
8.62500 1971885.0
8.63500 2083765.0
8.64500 2097750.0
8.65500 2279555.0
8.66500 1901960.0
8.67500 1985870.0
8.68500 2377450.0
8.69500 2181660.0
8.70500 2405420.0
8.71500 2894895.0
8.72500 2377450.0
8.73500 2237600.0
8.74500 2041810.0
8.75500 1454440.0
8.76500 1887975.0
8.77500 1552335.0
8.78500 1734140.0
8.79500 1873990.0
8.80500 2657150.0
8.81500 1762110.0
8.82500 1468425.0
8.83500 1887975.0
8.84500 1790080.0
8.85500 1622260.0
8.86500 2503315.0
8.87500 2517300.0
8.88500 2643165.0
8.89500 4335350.0
8.90500 4069635.0
8.91500 4643020.0
8.92500 4209485.0
8.93500 3384370.0
8.94500 1943915.0
8.95500 1762110.0
8.96500 2181660.0
8.97500 1846020.0
8.98500 2125720.0
8.99500 1818050.0
9.00500 2824970.0
9.01500 2517300.0
9.02500 2265570.0
9.03500 2223615.0
9.04500 2489330.0
9.05500 1999855.0
9.06500 3230535.0
9.07500 2447375.0
9.08500 2769030.0
9.09500 2573240.0
9.10500 3412340.0
9.11500 4041665.0
9.12500 2783015.0
9.13500 3580160.0
9.14500 3552190.0
9.15500 3985725.0
9.16500 2601210.0
9.17500 2908880.0
9.18500 4852795.0
9.19500 4866780.0
9.20500 2433390.0
9.21500 2671135.0
9.22500 1762110.0
9.23500 2279555.0
9.24500 1622260.0
9.25500 2377450.0
9.26500 4223470.0
9.27500 5915655.0
9.28500 6866635.0
9.29500 6461070.0
9.30500 5663925.0
9.31500 4181515.0
9.32500 5314300.0
9.33500 4796855.0
9.34500 5803775.0
9.35500 4978660.0
9.36500 5076555.0
9.37500 4950690.0
9.38500 4069635.0
9.39500 5440165.0
9.40500 6265280.0
9.41500 6433100.0
9.42500 5412195.0
9.43500 5104525.0
9.44500 5118510.0
9.45500 5985580.0
9.46500 6405130.0
9.47500 4335350.0
9.48500 3650085.0
9.49500 3244520.0
9.50500 3803920.0
9.51500 3747980.0
9.52500 3286475.0
9.53500 3132640.0
9.54500 3943770.0
9.55500 3062715.0
9.56500 2293540.0
9.57500 2307525.0
9.58500 2419405.0
9.59500 2489330.0
9.60500 1915945.0
9.61500 2279555.0
9.62500 2181660.0
9.63500 1860005.0
9.64500 2167675.0
9.65500 2964820.0
9.66500 3873845.0
9.67500 3957755.0
9.68500 7006485.0
9.69500 4503170.0
9.70500 3412340.0
9.71500 3482265.0
9.72500 3678055.0
9.73500 5020615.0
9.74500 3873845.0
9.75500 3789935.0
9.76500 2545270.0
9.77500 3062715.0
9.78500 2447375.0
9.79500 1999855.0
9.80500 2013840.0
9.81500 2908880.0
9.82500 1594290.0
9.83500 1608275.0
9.84500 1860005.0
9.85500 3104670.0
9.86500 3090685.0
9.87500 3482265.0
9.88500 2810985.0
9.89500 4223470.0
9.90500 4013695.0
9.91500 4992645.0
9.92500 4978660.0
9.93500 4041665.0
9.94500 2629180.0
9.95500 2209630.0
9.96500 2321510.0
9.97500 3174595.0
9.98500 4349335.0
9.99500 3971740.0
