0.00500 376244142080.0
0.01500 417382957056.0
0.02500 304274833408.0
0.03500 175040741376.0
0.04500 88668618752.0
0.05500 52659372032.0
0.06500 48526508032.0
0.07500 54030360576.0
0.08500 61550727168.0
0.09500 68159070208.0
0.10500 76399050752.0
0.11500 83708633088.0
0.12500 90402955264.0
0.13500 98471141376.0
0.14500 104732000256.0
0.15500 111702925312.0
0.16500 119417217024.0
0.17500 124915654656.0
0.18500 132286300160.0
0.19500 137671819264.0
0.20500 143693725696.0
0.21500 151223566336.0
0.22500 155914633216.0
0.23500 162776367104.0
0.24500 168796946432.0
0.25500 173648003072.0
0.26500 181039497216.0
0.27500 186104905728.0
0.28500 192959381504.0
0.29500 199427129344.0
0.30500 202890248192.0
0.31500 211523272704.0
0.32500 214610984960.0
0.33500 220998221824.0
0.34500 226551152640.0
0.35500 229665210368.0
0.36500 236770197504.0
0.37500 240123641856.0
0.38500 245308030976.0
0.39500 252527640576.0
0.40500 254426267648.0
0.41500 260252205056.0
0.42500 263948632064.0
0.43500 268433981440.0
0.44500 275221643264.0
0.45500 274589220864.0
0.46500 280056397824.0
0.47500 285620436992.0
0.48500 289777156096.0
0.49500 296074051584.0
0.50500 296083030016.0
0.51500 300017811456.0
0.52500 304389193728.0
0.53500 306182848512.0
0.54500 311959289856.0
0.55500 310514450432.0
0.56500 312276353024.0
0.57500 318322507776.0
0.58500 319379800064.0
0.59500 323528687616.0
0.60500 323080552448.0
0.61500 323803971584.0
0.62500 328228372480.0
0.63500 326782025728.0
0.64500 327148371968.0
0.65500 325854527488.0
0.66500 321735655424.0
0.67500 318362189824.0
0.68500 309879406592.0
0.69500 297754394624.0
0.70500 273598562304.0
0.71500 238934294528.0
0.72500 205078364160.0
0.73500 170653024256.0
0.74500 144032612352.0
0.75500 124299575296.0
0.76500 107672264704.0
0.77500 96556130304.0
0.78500 85797052416.0
0.79500 77131612160.0
0.80500 70326960128.0
0.81500 63742705664.0
0.82500 59073073152.0
0.83500 54564196352.0
0.84500 50431348736.0
0.85500 47119466496.0
0.86500 43275423744.0
0.87500 40523161600.0
0.88500 37873770496.0
0.89500 35249541120.0
0.90500 32951527424.0
0.91500 30795614208.0
0.92500 28950753280.0
0.93500 27590823936.0
0.94500 26009499648.0
0.95500 24948903936.0
0.96500 23658256384.0
0.97500 22428891136.0
0.98500 21454262272.0
0.99500 20161251328.0
1.00500 19172442112.0
1.01500 18430173184.0
1.02500 17622401024.0
1.03500 17075713024.0
1.04500 16307293184.0
1.05500 15609371648.0
1.06500 14970732544.0
1.07500 14095425536.0
1.08500 13510377472.0
1.09500 13135900672.0
1.10500 12569606144.0
1.11500 12058859520.0
1.12500 11710424064.0
1.13500 11160658944.0
1.14500 10706244608.0
1.15500 10439410688.0
1.16500 9963766784.0
1.17500 9530441728.0
1.18500 9347560448.0
1.19500 8938764288.0
1.20500 8588384256.0
1.21500 8477483008.0
1.22500 8158932992.0
1.23500 7810440704.0
1.24500 7687847936.0
1.25500 7404554240.0
1.26500 7073836544.0
1.27500 6959104000.0
1.28500 6757048320.0
1.29500 6424513024.0
1.30500 6300620288.0
1.31500 6172559360.0
1.32500 5798684672.0
1.33500 5616333824.0
1.34500 5539961856.0
1.35500 5272274944.0
1.36500 5080316928.0
1.37500 5169848832.0
1.38500 5010405888.0
1.39500 4788897280.0
1.40500 4832894464.0
1.41500 4694233088.0
1.42500 4422896128.0
1.43500 4387989504.0
1.44500 4343251456.0
1.45500 4058964480.0
1.46500 3942595328.0
1.47500 4018156288.0
1.48500 3876697856.0
1.49500 3690333952.0
1.50500 3763419392.0
1.51500 3714122240.0
1.52500 3503396352.0
1.53500 3457189888.0
1.54500 3466238208.0
1.55500 3262896384.0
1.56500 3128416512.0
1.57500 3190062336.0
1.58500 3117494272.0
1.59500 2958177024.0
1.60500 2971085312.0
1.61500 3028479744.0
1.62500 2907355648.0
1.63500 2840003840.0
1.64500 2916110336.0
1.65500 2810495488.0
1.66500 2660002816.0
1.67500 2707789568.0
1.68500 2730235648.0
1.69500 2574246912.0
1.70500 2544375040.0
1.71500 2640955392.0
1.72500 2553535232.0
1.73500 2435627520.0
1.74500 2524907776.0
1.75500 2586204160.0
1.76500 2462352896.0
1.77500 2421055232.0
1.78500 2574694400.0
1.79500 2553535232.0
1.80500 2411167744.0
1.81500 2507901952.0
1.82500 2597140480.0
1.83500 2482896896.0
1.84500 2482603264.0
1.85500 2687301632.0
1.86500 2746569984.0
1.87500 2695636736.0
1.88500 2877651456.0
1.89500 3133479168.0
1.90500 3125731328.0
1.91500 3183615232.0
1.92500 3562217216.0
1.93500 3748091904.0
1.94500 3819275520.0
1.95500 4350677504.0
1.96500 5075408384.0
1.97500 5533500928.0
1.98500 6546084864.0
1.99500 8894571520.0
2.00500 11517038592.0
2.01500 16345639936.0
2.02500 29473052672.0
2.03500 50710380544.0
2.04500 72694480896.0
2.05500 81381163008.0
2.06500 72758042624.0
2.07500 52633833472.0
2.08500 33220976640.0
2.09500 20795848704.0
2.10500 15316553728.0
2.11500 11722912768.0
2.12500 8829681664.0
2.13500 7011827200.0
2.14500 5777161728.0
2.15500 4767248896.0
2.16500 3906136320.0
2.17500 3298963712.0
2.18500 2793559808.0
2.19500 2345270528.0
2.20500 2036146048.0
2.21500 1752949888.0
2.22500 1512813440.0
2.23500 1308716288.0
2.24500 1145343488.0
2.25500 1034204736.0
2.26500 907962112.0
2.27500 809297984.0
2.28500 745120768.0
2.29500 649351552.0
2.30500 604683456.0
2.31500 564001088.0
2.32500 526213600.0
2.33500 486552128.0
2.34500 460022592.0
2.35500 446177440.0
2.36500 413774208.0
2.37500 373399488.0
2.38500 373651232.0
2.39500 359750144.0
2.40500 334591136.0
2.41500 315949120.0
2.42500 303474496.0
2.43500 291433408.0
2.44500 271392896.0
2.45500 267155456.0
2.46500 270148256.0
2.47500 255673776.0
2.48500 235255664.0
2.49500 236234624.0
2.50500 237409360.0
2.51500 222473376.0
2.52500 211369296.0
2.53500 211970640.0
2.54500 205229872.0
2.55500 188405920.0
2.56500 187818544.0
2.57500 186573888.0
2.58500 180993872.0
2.59500 175274000.0
2.60500 170239408.0
2.61500 175092192.0
2.62500 165414576.0
2.63500 155722976.0
2.64500 157652912.0
2.65500 154310496.0
2.66500 149387776.0
2.67500 142772864.0
2.68500 145961440.0
2.69500 142814816.0
2.70500 133584720.0
2.71500 134997200.0
2.72500 134479760.0
2.73500 132298096.0
2.74500 124130864.0
2.75500 122242888.0
2.76500 122564544.0
2.77500 119697616.0
2.78500 110956992.0
2.79500 115600008.0
2.80500 117543928.0
2.81500 110859096.0
2.82500 108271872.0
2.83500 111208720.0
2.84500 106901344.0
2.85500 100314408.0
2.86500 97950944.0
2.87500 103405088.0
2.88500 93433784.0
2.89500 93783408.0
2.90500 91405960.0
2.91500 96216800.0
2.92500 89699792.0
2.93500 84916920.0
2.94500 83826088.0
2.95500 86105648.0
2.96500 81210896.0
2.97500 83672256.0
2.98500 83014960.0
2.99500 80273904.0
3.00500 75938552.0
3.01500 77910432.0
3.02500 79952248.0
3.03500 75267272.0
3.04500 71994784.0
3.05500 74204408.0
3.06500 73365312.0
3.07500 71043800.0
3.08500 68064992.0
3.09500 68386648.0
3.10500 65449800.0
3.11500 64750552.0
3.12500 63967392.0
3.13500 65058220.0
3.14500 64806488.0
3.15500 59925724.0
3.16500 57897900.0
3.17500 59701964.0
3.18500 59422264.0
3.19500 54765260.0
3.20500 53380744.0
3.21500 54681352.0
3.22500 52891272.0
3.23500 50527804.0
3.24500 51898336.0
3.25500 51143144.0
3.26500 50723596.0
3.27500 49576824.0
3.28500 50877432.0
3.29500 49492916.0
3.30500 46528096.0
3.31500 47968552.0
3.32500 52108112.0
3.33500 49325096.0
3.34500 46136516.0
3.35500 45688996.0
3.36500 46542080.0
3.37500 46234408.0
3.38500 44626136.0
3.39500 44262524.0
3.40500 44234556.0
3.41500 42122820.0
3.42500 40934096.0
3.43500 42640264.0
3.44500 43353500.0
3.45500 40011084.0
3.46500 38948224.0
3.47500 42234700.0
3.48500 40234844.0
3.49500 39074088.0
3.50500 39535596.0
3.51500 38654540.0
3.52500 39493640.0
3.53500 36472880.0
3.54500 40444620.0
3.55500 41087928.0
3.56500 40430636.0
3.57500 39549580.0
3.58500 39255896.0
3.59500 38193036.0
3.60500 38179048.0
3.61500 37339952.0
3.62500 37955288.0
3.63500 39577552.0
3.64500 39577552.0
3.65500 39171984.0
3.66500 40934096.0
3.67500 40067024.0
3.68500 39871236.0
3.69500 41787180.0
3.70500 43521320.0
3.71500 42654248.0
3.72500 42066880.0
3.73500 47465088.0
3.74500 51227056.0
3.75500 49688704.0
3.76500 52765404.0
3.77500 55324660.0
3.78500 61128436.0
3.79500 62582876.0
3.80500 72358392.0
3.81500 80595552.0
3.82500 92119192.0
3.83500 105362992.0
3.84500 130284256.0
3.85500 170840768.0
3.86500 225326320.0
3.87500 329850208.0
3.88500 564546496.0
3.89500 998263296.0
3.90500 1482298112.0
3.91500 1760683520.0
3.92500 1735454592.0
3.93500 1430987136.0
3.94500 1008654144.0
3.95500 684453888.0
3.96500 508103008.0
3.97500 393985408.0
3.98500 329752320.0
3.99500 263309584.0
4.00500 222976832.0
4.01500 193971952.0
4.02500 168225568.0
4.03500 142814816.0
4.04500 125445448.0
4.05500 112313536.0
4.06500 99293504.0
4.07500 86049704.0
4.08500 79644576.0
4.09500 69155824.0
4.10500 63254156.0
4.11500 56611280.0
4.12500 49758632.0
4.13500 45814860.0
4.14500 41549436.0
4.15500 38710480.0
4.16500 33480090.0
4.17500 31997680.0
4.18500 30473316.0
4.19500 27340676.0
4.20500 25047136.0
4.21500 23634650.0
4.22500 22138256.0
4.23500 20613890.0
4.24500 18320350.0
4.25500 18054636.0
4.26500 16642150.0
4.27500 15845005.0
4.28500 14082895.0
4.29500 13691315.0
4.30500 12964095.0
4.31500 10502735.0
4.32500 10754465.0
4.33500 10908300.0
4.34500 10139125.0
4.35500 10936270.0
4.36500 9439875.0
4.37500 9048295.0
4.38500 9691605.0
4.39500 9006340.0
4.40500 9202130.0
4.41500 8796565.0
4.42500 8153255.0
4.43500 7915510.0
4.44500 7607840.0
4.45500 7188290.0
4.46500 7244230.0
4.47500 7607840.0
4.48500 7272200.0
4.49500 7006485.0
4.50500 7901525.0
4.51500 6698815.0
4.52500 6796710.0
4.53500 6503025.0
4.54500 6153400.0
4.55500 5594000.0
4.56500 5733850.0
4.57500 6363175.0
4.58500 7020470.0
4.59500 7160320.0
4.60500 5454150.0
4.61500 5524075.0
4.62500 4894750.0
4.63500 4615050.0
4.64500 4726930.0
4.65500 4349335.0
4.66500 5468135.0
4.67500 6209340.0
4.68500 5621970.0
4.69500 5524075.0
4.70500 5216405.0
4.71500 5006630.0
4.72500 4866780.0
4.73500 5202420.0
4.74500 4712945.0
4.75500 4712945.0
4.76500 4237455.0
4.77500 5538060.0
4.78500 5719865.0
4.79500 3943770.0
4.80500 5118510.0
4.81500 5761820.0
4.82500 4782870.0
4.83500 4545125.0
4.84500 4447230.0
4.85500 3859860.0
4.86500 4265425.0
4.87500 5230390.0
4.88500 5258360.0
4.89500 4754900.0
4.90500 4880765.0
4.91500 5286330.0
4.92500 5076555.0
4.93500 6782725.0
4.94500 5663925.0
4.95500 4601065.0
4.96500 4601065.0
4.97500 6209340.0
4.98500 6167385.0
4.99500 5663925.0
5.00500 5594000.0
5.01500 4950690.0
5.02500 6363175.0
5.03500 7426035.0
5.04500 6335205.0
5.05500 4643020.0
5.06500 4810840.0
5.07500 4698960.0
5.08500 7076410.0
5.09500 7719720.0
5.10500 4643020.0
5.11500 5733850.0
5.12500 4503170.0
5.13500 4391290.0
5.14500 4195500.0
5.15500 5286330.0
5.16500 6013550.0
5.17500 5076555.0
5.18500 5160465.0
5.19500 5496105.0
5.20500 4489185.0
5.21500 6265280.0
5.22500 4894750.0
5.23500 5314300.0
5.24500 4866780.0
5.25500 4209485.0
5.26500 4391290.0
5.27500 4852795.0
5.28500 4894750.0
5.29500 4475200.0
5.30500 5244375.0
5.31500 7412050.0
5.32500 6055505.0
5.33500 4992645.0
5.34500 7174305.0
5.35500 6964530.0
5.36500 6726785.0
5.37500 5971595.0
5.38500 6195355.0
5.39500 7146335.0
5.40500 5496105.0
5.41500 4363320.0
5.42500 4922720.0
5.43500 4181515.0
5.44500 8069345.0
5.45500 7356110.0
5.46500 6740770.0
5.47500 5160465.0
5.48500 3943770.0
5.49500 4307380.0
5.50500 4069635.0
5.51500 3747980.0
5.52500 4545125.0
5.53500 3566175.0
5.54500 4097605.0
5.55500 3692040.0
5.56500 2685120.0
5.57500 2615195.0
5.58500 2615195.0
5.59500 3048730.0
5.60500 3440310.0
5.61500 3272490.0
5.62500 3160610.0
5.63500 3678055.0
5.64500 3048730.0
5.65500 3859860.0
5.66500 3328430.0
5.67500 3608130.0
5.68500 2685120.0
5.69500 3314445.0
5.70500 3048730.0
5.71500 3678055.0
5.72500 3370385.0
5.73500 4237455.0
5.74500 4684975.0
5.75500 5020615.0
5.76500 7985435.0
5.77500 8936415.0
5.78500 12726350.0
5.79500 22445924.0
5.80500 36500848.0
5.81500 48220280.0
5.82500 51017280.0
5.83500 42556356.0
5.84500 33759792.0
5.85500 26459620.0
5.86500 20138400.0
5.87500 20110430.0
5.88500 16684105.0
5.89500 14418535.0
5.90500 13159885.0
5.91500 10684540.0
5.92500 8488895.0
5.93500 8293105.0
5.94500 7929495.0
5.95500 7747690.0
5.96500 7957465.0
5.97500 7342125.0
5.98500 6069490.0
5.99500 5356255.0
6.00500 5901670.0
6.01500 6237310.0
6.02500 5314300.0
6.03500 6209340.0
6.04500 5985580.0
6.05500 5621970.0
6.06500 4573095.0
6.07500 3580160.0
6.08500 3580160.0
6.09500 3412340.0
6.10500 3761965.0
6.11500 3594145.0
6.12500 3636100.0
6.13500 3216550.0
6.14500 3412340.0
6.15500 2894895.0
6.16500 3146625.0
6.17500 3188580.0
6.18500 3048730.0
6.19500 2922865.0
6.20500 2559255.0
6.21500 2321510.0
6.22500 2475345.0
6.23500 3468280.0
6.24500 3160610.0
6.25500 3034745.0
6.26500 2922865.0
6.27500 2824970.0
6.28500 3482265.0
6.29500 2908880.0
6.30500 2866925.0
6.31500 2349480.0
6.32500 2251585.0
6.33500 2181660.0
6.34500 3594145.0
6.35500 3412340.0
6.36500 3314445.0
6.37500 3020760.0
6.38500 2531285.0
6.39500 2433390.0
6.40500 2447375.0
6.41500 2391435.0
6.42500 2922865.0
6.43500 2769030.0
6.44500 2377450.0
6.45500 2405420.0
6.46500 2027825.0
6.47500 2013840.0
6.48500 1398500.0
6.49500 1538350.0
6.50500 1957900.0
6.51500 2629180.0
6.52500 2489330.0
6.53500 2349480.0
6.54500 2237600.0
6.55500 2349480.0
6.56500 2335495.0
6.57500 2097750.0
6.58500 1370530.0
6.59500 1286620.0
6.60500 1762110.0
6.61500 1468425.0
6.62500 1524365.0
6.63500 1370530.0
6.64500 1188725.0
6.65500 1132785.0
6.66500 1314590.0
6.67500 1552335.0
6.68500 1370530.0
6.69500 1566320.0
6.70500 1398500.0
6.71500 1314590.0
6.72500 1692185.0
6.73500 1426470.0
6.74500 1384515.0
6.75500 1272635.0
6.76500 1160755.0
6.77500 1188725.0
6.78500 1664215.0
6.79500 1160755.0
6.80500 1076845.0
6.81500 1342560.0
6.82500 1426470.0
6.83500 1832035.0
6.84500 1202710.0
6.85500 923010.0
6.86500 1440455.0
6.87500 1258650.0
6.88500 1468425.0
6.89500 1734140.0
6.90500 1272635.0
6.91500 1370530.0
6.92500 1790080.0
6.93500 1692185.0
6.94500 1720155.0
6.95500 1664215.0
6.96500 1650230.0
6.97500 1846020.0
6.98500 1832035.0
6.99500 2027825.0
7.00500 2069780.0
7.01500 1482410.0
7.02500 1873990.0
7.03500 1538350.0
7.04500 1943915.0
7.05500 1468425.0
7.06500 1650230.0
7.07500 1468425.0
7.08500 1286620.0
7.09500 1328575.0
7.10500 1440455.0
7.11500 1356545.0
7.12500 1510380.0
7.13500 2097750.0
7.14500 1929930.0
7.15500 2181660.0
7.16500 2153690.0
7.17500 1846020.0
7.18500 2069780.0
7.19500 1762110.0
7.20500 1384515.0
7.21500 1804065.0
7.22500 1496395.0
7.23500 1216695.0
7.24500 1650230.0
7.25500 1636245.0
7.26500 1846020.0
7.27500 1915945.0
7.28500 2223615.0
7.29500 2433390.0
7.30500 2894895.0
7.31500 2181660.0
7.32500 1720155.0
7.33500 1790080.0
7.34500 1706170.0
7.35500 1818050.0
7.36500 1985870.0
7.37500 1664215.0
7.38500 1370530.0
7.39500 1216695.0
7.40500 1901960.0
7.41500 1748125.0
7.42500 1720155.0
7.43500 1636245.0
7.44500 1412485.0
7.45500 1678200.0
7.46500 1650230.0
7.47500 1622260.0
7.48500 1328575.0
7.49500 1454440.0
7.50500 1804065.0
7.51500 1734140.0
7.52500 1496395.0
7.53500 1608275.0
7.54500 2223615.0
7.55500 2685120.0
7.56500 1957900.0
7.57500 2027825.0
7.58500 1594290.0
7.59500 1901960.0
7.60500 2237600.0
7.61500 1887975.0
7.62500 2531285.0
7.63500 1762110.0
7.64500 1440455.0
7.65500 1818050.0
7.66500 2601210.0
7.67500 2559255.0
7.68500 3286475.0
7.69500 2894895.0
7.70500 3887830.0
7.71500 4111590.0
7.72500 5020615.0
7.73500 6964530.0
7.74500 6097460.0
7.75500 6153400.0
7.76500 5328285.0
7.77500 4936705.0
7.78500 3733995.0
7.79500 3510235.0
7.80500 3090685.0
7.81500 3006775.0
7.82500 2769030.0
7.83500 2908880.0
7.84500 3062715.0
7.85500 2741060.0
7.86500 2922865.0
7.87500 2769030.0
7.88500 2321510.0
7.89500 1846020.0
7.90500 2069780.0
7.91500 2027825.0
7.92500 1971885.0
7.93500 1790080.0
7.94500 2055795.0
7.95500 2069780.0
7.96500 2265570.0
7.97500 1985870.0
7.98500 2783015.0
7.99500 2055795.0
8.00500 2517300.0
8.01500 2209630.0
8.02500 2447375.0
8.03500 2335495.0
8.04500 3342415.0
8.05500 3006775.0
8.06500 2769030.0
8.07500 3006775.0
8.08500 2852940.0
8.09500 2307525.0
8.10500 2503315.0
8.11500 3076700.0
8.12500 2363465.0
8.13500 2027825.0
8.14500 1790080.0
8.15500 2643165.0
8.16500 2209630.0
8.17500 2894895.0
8.18500 2713090.0
8.19500 2335495.0
8.20500 2237600.0
8.21500 2531285.0
8.22500 2461360.0
8.23500 2573240.0
8.24500 2433390.0
8.25500 2615195.0
8.26500 2936850.0
8.27500 2363465.0
8.28500 2223615.0
8.29500 4013695.0
8.30500 3482265.0
8.31500 3636100.0
8.32500 3468280.0
8.33500 3370385.0
8.34500 3048730.0
8.35500 3370385.0
8.36500 3775950.0
8.37500 3370385.0
8.38500 3566175.0
8.39500 3174595.0
8.40500 4405275.0
8.41500 3985725.0
8.42500 3747980.0
8.43500 4643020.0
8.44500 2475345.0
8.45500 2573240.0
8.46500 2657150.0
8.47500 2279555.0
8.48500 2307525.0
8.49500 2237600.0
8.50500 2363465.0
8.51500 2713090.0
8.52500 2615195.0
8.53500 2447375.0
8.54500 2237600.0
8.55500 2629180.0
8.56500 2699105.0
8.57500 2587225.0
8.58500 3090685.0
8.59500 2097750.0
8.60500 2055795.0
8.61500 2713090.0
8.62500 2531285.0
8.63500 3664070.0
8.64500 3915800.0
8.65500 3817905.0
8.66500 3244520.0
8.67500 4992645.0
8.68500 4643020.0
8.69500 5985580.0
8.70500 4433245.0
8.71500 3803920.0
8.72500 2265570.0
8.73500 1706170.0
8.74500 2587225.0
8.75500 3076700.0
8.76500 3174595.0
8.77500 2461360.0
8.78500 2055795.0
8.79500 2866925.0
8.80500 3090685.0
8.81500 2769030.0
8.82500 3076700.0
8.83500 3286475.0
8.84500 3230535.0
8.85500 2363465.0
8.86500 2657150.0
8.87500 2069780.0
8.88500 2195645.0
8.89500 2307525.0
8.90500 1832035.0
8.91500 2265570.0
8.92500 2083765.0
8.93500 2783015.0
8.94500 3118655.0
8.95500 3258505.0
8.96500 2992790.0
8.97500 2741060.0
8.98500 2531285.0
8.99500 2601210.0
9.00500 2489330.0
9.01500 2852940.0
9.02500 2265570.0
9.03500 2783015.0
9.04500 2545270.0
9.05500 2643165.0
9.06500 3090685.0
9.07500 3761965.0
9.08500 3020760.0
9.09500 2908880.0
9.10500 2587225.0
9.11500 2657150.0
9.12500 2922865.0
9.13500 3076700.0
9.14500 4461215.0
9.15500 3454295.0
9.16500 2852940.0
9.17500 2391435.0
9.18500 2461360.0
9.19500 2755045.0
9.20500 3230535.0
9.21500 3384370.0
9.22500 4209485.0
9.23500 5090540.0
9.24500 4461215.0
9.25500 4531140.0
9.26500 4209485.0
9.27500 5412195.0
9.28500 5202420.0
9.29500 5761820.0
9.30500 5146480.0
9.31500 4824825.0
9.32500 4643020.0
9.33500 3062715.0
9.34500 3314445.0
9.35500 4111590.0
9.36500 2866925.0
9.37500 3664070.0
9.38500 4279410.0
9.39500 3706025.0
9.40500 4125575.0
9.41500 4083620.0
9.42500 3901815.0
9.43500 4405275.0
9.44500 4964675.0
9.45500 5188435.0
9.46500 3957755.0
9.47500 3845875.0
9.48500 3566175.0
9.49500 3706025.0
9.50500 4447230.0
9.51500 3440310.0
9.52500 2517300.0
9.53500 2601210.0
9.54500 2237600.0
9.55500 2279555.0
9.56500 2447375.0
9.57500 2223615.0
9.58500 2321510.0
9.59500 3076700.0
9.60500 3174595.0
9.61500 3454295.0
9.62500 4363320.0
9.63500 5901670.0
9.64500 5621970.0
9.65500 5733850.0
9.66500 6768740.0
9.67500 6852650.0
9.68500 6740770.0
9.69500 5104525.0
9.70500 5538060.0
9.71500 4922720.0
9.72500 4027680.0
9.73500 4055650.0
9.74500 3789935.0
9.75500 3901815.0
9.76500 3915800.0
9.77500 4475200.0
9.78500 3720010.0
9.79500 3328430.0
9.80500 3664070.0
9.81500 3160610.0
9.82500 2852940.0
9.83500 2992790.0
9.84500 3552190.0
9.85500 3552190.0
9.86500 3678055.0
9.87500 3999710.0
9.88500 4209485.0
9.89500 4209485.0
9.90500 4922720.0
9.91500 3608130.0
9.92500 4237455.0
9.93500 4153545.0
9.94500 4111590.0
9.95500 4055650.0
9.96500 4698960.0
9.97500 3706025.0
9.98500 2727075.0
9.99500 2545270.0
