0.00500 36952652.0
0.01500 41644756.0
0.02500 33578448.0
0.03500 21218412.0
0.04500 11656795.0
0.05500 6048062.0
0.06500 4014995.0
0.07500 3758980.0
0.08500 4114296.0
0.09500 4595142.0
0.10500 5004702.0
0.11500 5527821.0
0.12500 5965791.0
0.13500 6394273.0
0.14500 6887594.0
0.15500 7325043.0
0.16500 7805562.0
0.17500 8252511.0
0.18500 8603838.0
0.19500 9103272.0
0.20500 9556125.0
0.21500 10008418.0
0.22500 10403133.0
0.23500 10711019.0
0.24500 11093892.0
0.25500 11441801.0
0.26500 11818817.0
0.27500 12205006.0
0.28500 12482502.0
0.29500 12922985.0
0.30500 13249406.0
0.31500 13538628.0
0.32500 13919335.0
0.33500 14117237.0
0.34500 14531259.0
0.35500 14853171.0
0.36500 14993818.0
0.37500 15393701.0
0.38500 15602471.0
0.39500 15900656.0
0.40500 16169284.0
0.41500 16367463.0
0.42500 16591469.0
0.43500 16710174.0
0.44500 16805242.0
0.45500 16898982.0
0.46500 16871000.0
0.47500 16961140.0
0.48500 16926796.0
0.49500 16883592.0
0.50500 16881156.0
0.51500 16693528.0
0.52500 16644663.0
0.53500 16350387.0
0.54500 15918472.0
0.55500 15544527.0
0.56500 14761044.0
0.57500 13666026.0
0.58500 12307163.0
0.59500 10634538.0
0.60500 9066909.0
0.61500 7516706.0
0.62500 6191760.0
0.63500 5191666.0
0.64500 4318404.0
0.65500 3688266.0
0.66500 3190763.0
0.67500 2746754.0
0.68500 2390526.0
0.69500 2075736.0
0.70500 1835453.0
0.71500 1628198.0
0.72500 1444163.0
0.73500 1304305.0
0.74500 1158784.0
0.75500 1038864.0
0.76500 941077.0
0.77500 843153.0
0.78500 761468.0
0.79500 695587.0
0.80500 627107.0
0.81500 566738.0
0.82500 518570.0
0.83500 477835.0
0.84500 431573.0
0.85500 387954.0
0.86500 362634.0
0.87500 332427.0
0.88500 299638.0
0.89500 272762.0
0.90500 255370.0
0.91500 237065.0
0.92500 211903.0
0.93500 193700.0
0.94500 182854.0
0.95500 170636.0
0.96500 152469.0
0.97500 138110.0
0.98500 132509.0
0.99500 125535.0
1.00500 110122.0
1.01500 98026.0
1.02500 94074.0
1.03500 91327.0
1.04500 81730.0
1.05500 70444.0
1.06500 66760.0
1.07500 66459.0
1.08500 60830.0
1.09500 52031.0
1.10500 46964.0
1.11500 48060.0
1.12500 47003.0
1.13500 40178.0
1.14500 33659.0
1.15500 33434.0
1.16500 34262.0
1.17500 31907.0
1.18500 26058.0
1.19500 23385.0
1.20500 25145.0
1.21500 25172.0
1.22500 21297.0
1.23500 17088.0
1.24500 16626.0
1.25500 18442.0
1.26500 17458.0
1.27500 14085.0
1.28500 11663.0
1.29500 12516.0
1.30500 13672.0
1.31500 12141.0
1.32500 9416.0
1.33500 8374.0
1.34500 9755.0
1.35500 10246.0
1.36500 8624.0
1.37500 6765.0
1.38500 6640.0
1.39500 7705.0
1.40500 7823.0
1.41500 6339.0
1.42500 5161.0
1.43500 5427.0
1.44500 6533.0
1.45500 6192.0
1.46500 4711.0
1.47500 4148.0
1.48500 4836.0
1.49500 5656.0
1.50500 4839.0
1.51500 3748.0
1.52500 3325.0
1.53500 4243.0
1.54500 4748.0
1.55500 4165.0
1.56500 2996.0
1.57500 2917.0
1.58500 3844.0
1.59500 4430.0
1.60500 3964.0
1.61500 2762.0
1.62500 2667.0
1.63500 3412.0
1.64500 4067.0
1.65500 3742.0
1.66500 3010.0
1.67500 2780.0
1.68500 3319.0
1.69500 3769.0
1.70500 3409.0
1.71500 3255.0
1.72500 3012.0
1.73500 3206.0
1.74500 3601.0
1.75500 3398.0
1.76500 3496.0
1.77500 3784.0
1.78500 3888.0
1.79500 3634.0
1.80500 3169.0
1.81500 3272.0
1.82500 4090.0
1.83500 4547.0
1.84500 4589.0
1.85500 3927.0
1.86500 3452.0
1.87500 4203.0
1.88500 5243.0
1.89500 5683.0
1.90500 5054.0
1.91500 4391.0
1.92500 5067.0
1.93500 6631.0
1.94500 7646.0
1.95500 7940.0
1.96500 7017.0
1.97500 6474.0
1.98500 7261.0
1.99500 9058.0
2.00500 10922.0
2.01500 12327.0
2.02500 12978.0
2.03500 14389.0
2.04500 18052.0
2.05500 25179.0
2.06500 35153.0
2.07500 44508.0
2.08500 51389.0
2.09500 57127.0
2.10500 71479.0
2.11500 105592.0
2.12500 166166.0
2.13500 246349.0
2.14500 326154.0
2.15500 380739.0
2.16500 395671.0
2.17500 367068.0
2.18500 297960.0
2.19500 210497.0
2.20500 130532.0
2.21500 72066.0
2.22500 39395.0
2.23500 26310.0
2.24500 23726.0
2.25500 22971.0
2.26500 19783.0
2.27500 15139.0
2.28500 11366.0
2.29500 9679.0
2.30500 10032.0
2.31500 10197.0
2.32500 9427.0
2.33500 7394.0
2.34500 5589.0
2.35500 4523.0
2.36500 4618.0
2.37500 4833.0
2.38500 4781.0
2.39500 3916.0
2.40500 3171.0
2.41500 2658.0
2.42500 2884.0
2.43500 3294.0
2.44500 3232.0
2.45500 2857.0
2.46500 2286.0
2.47500 1963.0
2.48500 1925.0
2.49500 2058.0
2.50500 2090.0
2.51500 1964.0
2.52500 1727.0
2.53500 1439.0
2.54500 1498.0
2.55500 1514.0
2.56500 1590.0
2.57500 1550.0
2.58500 1271.0
2.59500 1129.0
2.60500 1020.0
2.61500 1125.0
2.62500 1203.0
2.63500 1158.0
2.64500 979.0
2.65500 851.0
2.66500 855.0
2.67500 952.0
2.68500 1042.0
2.69500 1020.0
2.70500 928.0
2.71500 780.0
2.72500 697.0
2.73500 765.0
2.74500 830.0
2.75500 779.0
2.76500 776.0
2.77500 669.0
2.78500 575.0
2.79500 575.0
2.80500 700.0
2.81500 747.0
2.82500 701.0
2.83500 669.0
2.84500 584.0
2.85500 576.0
2.86500 582.0
2.87500 589.0
2.88500 661.0
2.89500 579.0
2.90500 495.0
2.91500 444.0
2.92500 528.0
2.93500 523.0
2.94500 573.0
2.95500 548.0
2.96500 451.0
2.97500 353.0
2.98500 385.0
2.99500 423.0
3.00500 506.0
3.01500 453.0
3.02500 355.0
3.03500 256.0
3.04500 285.0
3.05500 335.0
3.06500 351.0
3.07500 284.0
3.08500 259.0
3.09500 248.0
3.10500 242.0
3.11500 236.0
3.12500 240.0
3.13500 233.0
3.14500 235.0
3.15500 213.0
3.16500 192.0
3.17500 212.0
3.18500 250.0
3.19500 239.0
3.20500 223.0
3.21500 205.0
3.22500 163.0
3.23500 208.0
3.24500 199.0
3.25500 245.0
3.26500 236.0
3.27500 175.0
3.28500 160.0
3.29500 195.0
3.30500 240.0
3.31500 258.0
3.32500 205.0
3.33500 173.0
3.34500 139.0
3.35500 183.0
3.36500 210.0
3.37500 246.0
3.38500 235.0
3.39500 198.0
3.40500 188.0
3.41500 188.0
3.42500 188.0
3.43500 238.0
3.44500 164.0
3.45500 156.0
3.46500 157.0
3.47500 205.0
3.48500 230.0
3.49500 234.0
3.50500 228.0
3.51500 164.0
3.52500 217.0
3.53500 208.0
3.54500 246.0
3.55500 180.0
3.56500 228.0
3.57500 199.0
3.58500 193.0
3.59500 188.0
3.60500 180.0
3.61500 218.0
3.62500 212.0
3.63500 190.0
3.64500 201.0
3.65500 168.0
3.66500 172.0
3.67500 204.0
3.68500 171.0
3.69500 196.0
3.70500 200.0
3.71500 205.0
3.72500 221.0
3.73500 303.0
3.74500 267.0
3.75500 278.0
3.76500 216.0
3.77500 200.0
3.78500 201.0
3.79500 216.0
3.80500 234.0
3.81500 205.0
3.82500 247.0
3.83500 257.0
3.84500 191.0
3.85500 238.0
3.86500 238.0
3.87500 221.0
3.88500 198.0
3.89500 205.0
3.90500 215.0
3.91500 206.0
3.92500 235.0
3.93500 324.0
3.94500 296.0
3.95500 231.0
3.96500 218.0
3.97500 252.0
3.98500 246.0
3.99500 279.0
4.00500 269.0
4.01500 268.0
4.02500 272.0
4.03500 412.0
4.04500 618.0
4.05500 798.0
4.06500 777.0
4.07500 794.0
4.08500 748.0
4.09500 971.0
4.10500 1535.0
4.11500 2473.0
4.12500 3556.0
4.13500 4362.0
4.14500 4962.0
4.15500 5121.0
4.16500 4495.0
4.17500 3693.0
4.18500 2730.0
4.19500 1777.0
4.20500 1121.0
4.21500 700.0
4.22500 479.0
4.23500 404.0
4.24500 386.0
4.25500 392.0
4.26500 350.0
4.27500 305.0
4.28500 263.0
4.29500 227.0
4.30500 226.0
4.31500 215.0
4.32500 219.0
4.33500 214.0
4.34500 199.0
4.35500 167.0
4.36500 170.0
4.37500 148.0
4.38500 167.0
4.39500 187.0
4.40500 167.0
4.41500 146.0
4.42500 124.0
4.43500 147.0
4.44500 133.0
4.45500 178.0
4.46500 196.0
4.47500 147.0
4.48500 164.0
4.49500 192.0
4.50500 140.0
4.51500 189.0
4.52500 168.0
4.53500 138.0
4.54500 137.0
4.55500 152.0
4.56500 183.0
4.57500 238.0
4.58500 253.0
4.59500 204.0
4.60500 138.0
4.61500 153.0
4.62500 161.0
4.63500 182.0
4.64500 177.0
4.65500 152.0
4.66500 167.0
4.67500 147.0
4.68500 172.0
4.69500 174.0
4.70500 155.0
4.71500 144.0
4.72500 147.0
4.73500 104.0
4.74500 122.0
4.75500 132.0
4.76500 169.0
4.77500 148.0
4.78500 150.0
4.79500 129.0
4.80500 155.0
4.81500 160.0
4.82500 151.0
4.83500 130.0
4.84500 124.0
4.85500 119.0
4.86500 114.0
4.87500 116.0
4.88500 109.0
4.89500 108.0
4.90500 137.0
4.91500 131.0
4.92500 134.0
4.93500 131.0
4.94500 120.0
4.95500 150.0
4.96500 193.0
4.97500 201.0
4.98500 152.0
4.99500 141.0
5.00500 127.0
5.01500 145.0
5.02500 163.0
5.03500 175.0
5.04500 150.0
5.05500 139.0
5.06500 160.0
5.07500 150.0
5.08500 170.0
5.09500 139.0
5.10500 169.0
5.11500 171.0
5.12500 190.0
5.13500 160.0
5.14500 151.0
5.15500 146.0
5.16500 161.0
5.17500 161.0
5.18500 194.0
5.19500 149.0
5.20500 155.0
5.21500 179.0
5.22500 152.0
5.23500 118.0
5.24500 160.0
5.25500 124.0
5.26500 130.0
5.27500 125.0
5.28500 140.0
5.29500 129.0
5.30500 109.0
5.31500 129.0
5.32500 151.0
5.33500 135.0
5.34500 151.0
5.35500 160.0
5.36500 189.0
5.37500 275.0
5.38500 248.0
5.39500 201.0
5.40500 155.0
5.41500 161.0
5.42500 176.0
5.43500 189.0
5.44500 188.0
5.45500 238.0
5.46500 228.0
5.47500 217.0
5.48500 213.0
5.49500 166.0
5.50500 154.0
5.51500 149.0
5.52500 156.0
5.53500 126.0
5.54500 190.0
5.55500 140.0
5.56500 157.0
5.57500 175.0
5.58500 130.0
5.59500 156.0
5.60500 160.0
5.61500 182.0
5.62500 207.0
5.63500 148.0
5.64500 168.0
5.65500 206.0
5.66500 151.0
5.67500 139.0
5.68500 130.0
5.69500 128.0
5.70500 128.0
5.71500 181.0
5.72500 171.0
5.73500 188.0
5.74500 208.0
5.75500 208.0
5.76500 161.0
5.77500 96.0
5.78500 85.0
5.79500 86.0
5.80500 85.0
5.81500 95.0
5.82500 117.0
5.83500 95.0
5.84500 115.0
5.85500 134.0
5.86500 107.0
5.87500 118.0
5.88500 130.0
5.89500 135.0
5.90500 116.0
5.91500 125.0
5.92500 106.0
5.93500 97.0
5.94500 89.0
5.95500 87.0
5.96500 97.0
5.97500 118.0
5.98500 141.0
5.99500 130.0
6.00500 113.0
6.01500 117.0
6.02500 128.0
6.03500 125.0
6.04500 113.0
6.05500 125.0
6.06500 72.0
6.07500 85.0
6.08500 85.0
6.09500 107.0
6.10500 95.0
6.11500 95.0
6.12500 80.0
6.13500 130.0
6.14500 154.0
6.15500 169.0
6.16500 203.0
6.17500 254.0
6.18500 228.0
6.19500 236.0
6.20500 244.0
6.21500 232.0
6.22500 200.0
6.23500 181.0
6.24500 122.0
6.25500 114.0
6.26500 112.0
6.27500 133.0
6.28500 124.0
6.29500 105.0
6.30500 98.0
6.31500 111.0
6.32500 111.0
6.33500 95.0
6.34500 119.0
6.35500 147.0
6.36500 142.0
6.37500 113.0
6.38500 102.0
6.39500 94.0
6.40500 109.0
6.41500 76.0
6.42500 128.0
6.43500 95.0
6.44500 80.0
6.45500 97.0
6.46500 103.0
6.47500 105.0
6.48500 122.0
6.49500 105.0
6.50500 108.0
6.51500 104.0
6.52500 127.0
6.53500 138.0
6.54500 174.0
6.55500 165.0
6.56500 157.0
6.57500 131.0
6.58500 142.0
6.59500 231.0
6.60500 259.0
6.61500 349.0
6.62500 341.0
6.63500 288.0
6.64500 178.0
6.65500 179.0
6.66500 193.0
6.67500 236.0
6.68500 193.0
6.69500 218.0
6.70500 220.0
6.71500 166.0
6.72500 121.0
6.73500 126.0
6.74500 153.0
6.75500 165.0
6.76500 156.0
6.77500 157.0
6.78500 117.0
6.79500 116.0
6.80500 145.0
6.81500 150.0
6.82500 301.0
6.83500 174.0
6.84500 172.0
6.85500 197.0
6.86500 224.0
6.87500 217.0
6.88500 187.0
6.89500 201.0
6.90500 169.0
6.91500 209.0
6.92500 237.0
6.93500 229.0
6.94500 193.0
6.95500 214.0
6.96500 231.0
6.97500 165.0
6.98500 210.0
6.99500 189.0
7.00500 209.0
7.01500 212.0
7.02500 174.0
7.03500 177.0
7.04500 175.0
7.05500 132.0
7.06500 188.0
7.07500 138.0
7.08500 180.0
7.09500 142.0
7.10500 158.0
7.11500 154.0
7.12500 133.0
7.13500 210.0
7.14500 204.0
7.15500 243.0
7.16500 215.0
7.17500 172.0
7.18500 199.0
7.19500 226.0
7.20500 192.0
7.21500 175.0
7.22500 140.0
7.23500 115.0
7.24500 130.0
7.25500 100.0
7.26500 106.0
7.27500 140.0
7.28500 104.0
7.29500 125.0
7.30500 113.0
7.31500 115.0
7.32500 139.0
7.33500 148.0
7.34500 169.0
7.35500 131.0
7.36500 107.0
7.37500 119.0
7.38500 114.0
7.39500 156.0
7.40500 169.0
7.41500 210.0
7.42500 192.0
7.43500 217.0
7.44500 227.0
7.45500 223.0
7.46500 217.0
7.47500 191.0
7.48500 164.0
7.49500 203.0
7.50500 139.0
7.51500 133.0
7.52500 116.0
7.53500 164.0
7.54500 127.0
7.55500 121.0
7.56500 89.0
7.57500 80.0
7.58500 70.0
7.59500 140.0
7.60500 118.0
7.61500 142.0
7.62500 184.0
7.63500 171.0
7.64500 134.0
7.65500 137.0
7.66500 117.0
7.67500 108.0
7.68500 117.0
7.69500 134.0
7.70500 100.0
7.71500 123.0
7.72500 148.0
7.73500 105.0
7.74500 129.0
7.75500 151.0
7.76500 149.0
7.77500 164.0
7.78500 187.0
7.79500 158.0
7.80500 145.0
7.81500 148.0
7.82500 123.0
7.83500 100.0
7.84500 109.0
7.85500 106.0
7.86500 123.0
7.87500 129.0
7.88500 137.0
7.89500 118.0
7.90500 105.0
7.91500 100.0
7.92500 109.0
7.93500 126.0
7.94500 219.0
7.95500 252.0
7.96500 185.0
7.97500 234.0
7.98500 188.0
7.99500 136.0
8.00500 145.0
8.01500 161.0
8.02500 113.0
8.03500 112.0
8.04500 107.0
8.05500 104.0
8.06500 115.0
