0.00500 382417207296.0
0.01500 433087283200.0
0.02500 327707525120.0
0.03500 186592329728.0
0.04500 77794418688.0
0.05500 21150005248.0
0.06500 6771061760.0
0.07500 4748368896.0
0.08500 5022838784.0
0.09500 5374631424.0
0.10500 5782601728.0
0.11500 6444805632.0
0.12500 6851363328.0
0.13500 7590792192.0
0.14500 8048577024.0
0.15500 8488992768.0
0.16500 9432071168.0
0.17500 9862543360.0
0.18500 10827313152.0
0.19500 11578265600.0
0.20500 11888438272.0
0.21500 13215992832.0
0.22500 13867022336.0
0.23500 15005974528.0
0.24500 16315935744.0
0.25500 16531304448.0
0.26500 18188206080.0
0.27500 19321270272.0
0.28500 20367683584.0
0.29500 22408990720.0
0.30500 22385510400.0
0.31500 24398469120.0
0.32500 26143684608.0
0.33500 27409606656.0
0.34500 30256982016.0
0.35500 30064435200.0
0.36500 32109867008.0
0.37500 34615615488.0
0.38500 35775434752.0
0.39500 39277375488.0
0.40500 39171076096.0
0.41500 41111326720.0
0.42500 44855083008.0
0.43500 45922263040.0
0.44500 49780097024.0
0.45500 50241085440.0
0.46500 51548725248.0
0.47500 56995672064.0
0.48500 57926148096.0
0.49500 61596667904.0
0.50500 62145773568.0
0.51500 63797751808.0
0.52500 69201371136.0
0.53500 70996066304.0
0.54500 74207846400.0
0.55500 76014051328.0
0.56500 76069322752.0
0.57500 82796486656.0
0.58500 85317435392.0
0.59500 87907557376.0
0.60500 90552975360.0
0.61500 88987320320.0
0.62500 94155325440.0
0.63500 95568527360.0
0.64500 95540510720.0
0.65500 96535003136.0
0.66500 90442465280.0
0.67500 87667752960.0
0.68500 79445737472.0
0.69500 67132280832.0
0.70500 58510888960.0
0.71500 48481087488.0
0.72500 42685870080.0
0.73500 38722101248.0
0.74500 33972948992.0
0.75500 31507156992.0
0.76500 27703068672.0
0.77500 25635526656.0
0.78500 24299118592.0
0.79500 21999915008.0
0.80500 21225789440.0
0.81500 19377672192.0
0.82500 18040999936.0
0.83500 17498634240.0
0.84500 16233633792.0
0.85500 15604057088.0
0.86500 14705087488.0
0.87500 13815753728.0
0.88500 13502014464.0
0.89500 12688156672.0
0.90500 12197773312.0
0.91500 11907234816.0
0.92500 11241324544.0
0.93500 11051282432.0
0.94500 10576505856.0
0.95500 10104050688.0
0.96500 9906540544.0
0.97500 9321310208.0
0.98500 9233861632.0
0.99500 8816941056.0
1.00500 8461456384.0
1.01500 8249388032.0
1.02500 7882603520.0
1.03500 7658409984.0
1.04500 7486660096.0
1.05500 7282381312.0
1.06500 7099429376.0
1.07500 6800598016.0
1.08500 6680718336.0
1.09500 6432051200.0
1.10500 6222024192.0
1.11500 6125919232.0
1.12500 5804908032.0
1.13500 5689769472.0
1.14500 5609719296.0
1.15500 5354157056.0
1.16500 5364785664.0
1.17500 5151178752.0
1.18500 4941557760.0
1.19500 4985652736.0
1.20500 4876625408.0
1.21500 4760116224.0
1.22500 4671493632.0
1.23500 4475591680.0
1.24500 4426546176.0
1.25500 4350285824.0
1.26500 4264991488.0
1.27500 4127994368.0
1.28500 4002926592.0
1.29500 4036224768.0
1.30500 3890892800.0
1.31500 3822450176.0
1.32500 3788326656.0
1.33500 3626478336.0
1.34500 3582649344.0
1.35500 3532457216.0
1.36500 3454379008.0
1.37500 3380468224.0
1.38500 3332164096.0
1.39500 3273776640.0
1.40500 3190286080.0
1.41500 3155855104.0
1.42500 3131465216.0
1.43500 2984958464.0
1.44500 2959309824.0
1.45500 2967253504.0
1.46500 2872518912.0
1.47500 2852045056.0
1.48500 2852087040.0
1.49500 2800454400.0
1.50500 2768330752.0
1.51500 2737437952.0
1.52500 2739255808.0
1.53500 2647374592.0
1.54500 2601321984.0
1.55500 2605894912.0
1.56500 2540808704.0
1.57500 2518978304.0
1.58500 2499385088.0
1.59500 2458437120.0
1.60500 2460898560.0
1.61500 2472701952.0
1.62500 2472072448.0
1.63500 2419866624.0
1.64500 2412300544.0
1.65500 2452199936.0
1.66500 2452647424.0
1.67500 2498042624.0
1.68500 2581728768.0
1.69500 2643151104.0
1.70500 2654143232.0
1.71500 2722865408.0
1.72500 2755870208.0
1.73500 2729242624.0
1.74500 2749856512.0
1.75500 2872574976.0
1.76500 2938793984.0
1.77500 3016466688.0
1.78500 3153267968.0
1.79500 3236968192.0
1.80500 3381908736.0
1.81500 3597193728.0
1.82500 3922526720.0
1.83500 4234811904.0
1.84500 4564969472.0
1.85500 4994532864.0
1.86500 5530032640.0
1.87500 6219521024.0
1.88500 7292800000.0
1.89500 8537772544.0
1.90500 10155445248.0
1.91500 13041655808.0
1.92500 17676969984.0
1.93500 24525019136.0
1.94500 36841820160.0
1.95500 59097882624.0
1.96500 88224382976.0
1.97500 118430752768.0
1.98500 136751595520.0
1.99500 133311594496.0
2.00500 109292847104.0
2.01500 79192678400.0
2.02500 52031320064.0
2.03500 34606862336.0
2.04500 24862588928.0
2.05500 18561003520.0
2.06500 14416605184.0
2.07500 11486859264.0
2.08500 9278781440.0
2.09500 7666758656.0
2.10500 6220318208.0
2.11500 5302734336.0
2.12500 4559865344.0
2.13500 3928819968.0
2.14500 3513535488.0
2.15500 3018144768.0
2.16500 2651108352.0
2.17500 2421432832.0
2.18500 2135845120.0
2.19500 1962459136.0
2.20500 1738041856.0
2.21500 1569144960.0
2.22500 1461880064.0
2.23500 1337581312.0
2.24500 1261558912.0
2.25500 1162838784.0
2.26500 1079893760.0
2.27500 1050721024.0
2.28500 969482176.0
2.29500 909234752.0
2.30500 839309760.0
2.31500 777538048.0
2.32500 737988480.0
2.33500 693334336.0
2.34500 664357440.0
2.35500 637366400.0
2.36500 590838272.0
2.37500 586125312.0
2.38500 552421504.0
2.39500 532646688.0
2.40500 513948736.0
2.41500 485517248.0
2.42500 482818144.0
2.43500 457463328.0
2.44500 444681056.0
2.45500 425088064.0
2.46500 406711776.0
2.47500 401551296.0
2.48500 391398208.0
2.49500 375874848.0
2.50500 369959200.0
2.51500 348366336.0
2.52500 343723328.0
2.53500 335304352.0
2.54500 318872000.0
2.55500 315655424.0
2.56500 305865920.0
2.57500 296537952.0
2.58500 291083776.0
2.59500 279462240.0
2.60500 274161952.0
2.61500 256177232.0
2.62500 248163824.0
2.63500 247198864.0
2.64500 233199872.0
2.65500 229857456.0
2.66500 227326176.0
2.67500 218599536.0
2.68500 217326896.0
2.69500 205873184.0
2.70500 211662976.0
2.71500 209243568.0
2.72500 198545040.0
2.73500 201328064.0
2.74500 199691808.0
2.75500 192685328.0
2.76500 193538416.0
2.77500 181567248.0
2.78500 183944704.0
2.79500 176616560.0
2.80500 170575040.0
2.81500 174392944.0
2.82500 169889776.0
2.83500 163932176.0
2.84500 165036992.0
2.85500 167666160.0
2.86500 159303136.0
2.87500 151555440.0
2.88500 149653488.0
2.89500 145094368.0
2.90500 138423536.0
2.91500 138143824.0
2.92500 137500512.0
2.93500 136563520.0
2.94500 132451936.0
2.95500 130675840.0
2.96500 134004272.0
2.97500 129976592.0
2.98500 123459584.0
2.99500 124718232.0
3.00500 118103328.0
3.01500 115138504.0
3.02500 115474144.0
3.03500 110425560.0
3.04500 107460736.0
3.05500 102831704.0
3.06500 106313968.0
3.07500 108090064.0
3.08500 98706128.0
3.09500 95629432.0
3.10500 95098000.0
3.11500 95042064.0
3.12500 89657832.0
3.13500 84609248.0
3.14500 83812104.0
3.15500 83112856.0
3.16500 80525632.0
3.17500 82022024.0
3.18500 79015248.0
3.19500 76833592.0
3.20500 76707728.0
3.21500 76693744.0
3.22500 75966520.0
3.23500 71043800.0
3.24500 70736128.0
3.25500 71043800.0
3.26500 69365600.0
3.27500 66764392.0
3.28500 67883192.0
3.29500 70078832.0
3.30500 69029960.0
3.31500 67505592.0
3.32500 67701384.0
3.33500 62834604.0
3.34500 60499112.0
3.35500 63142276.0
3.36500 62261220.0
3.37500 57925872.0
3.38500 59576100.0
3.39500 56205716.0
3.40500 58639104.0
3.41500 55884060.0
3.42500 57114740.0
3.43500 56569324.0
3.44500 55380600.0
3.45500 55436540.0
3.46500 54373680.0
3.47500 53087060.0
3.48500 52555632.0
3.49500 51003296.0
3.50500 52541644.0
3.51500 49870512.0
3.52500 49800584.0
3.53500 49940436.0
3.54500 49283140.0
3.55500 50066300.0
3.56500 49548856.0
3.57500 50122240.0
3.58500 51870364.0
3.59500 50877432.0
3.60500 53031120.0
3.61500 54765260.0
3.62500 54079996.0
3.63500 52765404.0
3.64500 53017136.0
3.65500 53059088.0
3.66500 55338644.0
3.67500 53982100.0
3.68500 59953696.0
3.69500 67351760.0
3.70500 73672976.0
3.71500 88888656.0
3.72500 112663160.0
3.73500 148730480.0
3.74500 208977856.0
3.75500 341569632.0
3.76500 552855040.0
3.77500 748561088.0
3.78500 833827648.0
3.79500 732911872.0
3.80500 534101120.0
3.81500 349499136.0
3.82500 238821840.0
3.83500 181553264.0
3.84500 147331968.0
3.85500 123739280.0
3.86500 111740152.0
3.87500 101489144.0
3.88500 88930616.0
3.89500 79378864.0
3.90500 73099592.0
3.91500 67701384.0
3.92500 62275204.0
3.93500 57450380.0
3.94500 57352484.0
3.95500 56932936.0
3.96500 50933368.0
3.97500 47535016.0
3.98500 43269592.0
3.99500 44472300.0
4.00500 41801164.0
4.01500 38430780.0
4.02500 35983404.0
4.03500 34375128.0
4.04500 32906704.0
4.05500 33088510.0
4.06500 30976776.0
4.07500 29508350.0
4.08500 28067896.0
4.09500 27886090.0
4.10500 26613456.0
4.11500 27760224.0
4.12500 26599470.0
4.13500 24949240.0
4.14500 25256910.0
4.15500 25075104.0
4.16500 23998260.0
4.17500 24557660.0
4.18500 22501864.0
4.19500 22767580.0
4.20500 20529980.0
4.21500 19411180.0
4.22500 21117350.0
4.23500 20781710.0
4.24500 20446070.0
4.25500 19467120.0
4.26500 22487880.0
4.27500 21047424.0
4.28500 20278250.0
4.29500 20110430.0
4.30500 18460200.0
4.31500 16474330.0
4.32500 17313430.0
4.33500 19131480.0
4.34500 18376290.0
4.35500 18250424.0
4.36500 17495236.0
4.37500 17089670.0
4.38500 16712075.0
4.39500 18236440.0
4.40500 19551030.0
4.41500 18642004.0
4.42500 16208615.0
4.43500 15984855.0
4.44500 14866055.0
4.45500 15803050.0
4.46500 16949820.0
4.47500 16250570.0
4.48500 15817035.0
4.49500 13845150.0
4.50500 15131770.0
4.51500 14614325.0
4.52500 14726205.0
4.53500 16054780.0
4.54500 16432375.0
4.55500 15131770.0
4.56500 13551465.0
4.57500 12138980.0
4.58500 12488605.0
4.59500 12278830.0
4.60500 12908155.0
4.61500 11761385.0
4.62500 11229955.0
4.63500 14362595.0
4.64500 14768160.0
4.65500 12894170.0
4.66500 11509655.0
4.67500 11048150.0
4.68500 10195065.0
4.69500 11215970.0
4.70500 10642585.0
4.71500 11062135.0
4.72500 11663490.0
4.73500 11453715.0
4.74500 11160030.0
4.75500 11104090.0
4.76500 12754320.0
4.77500 14432520.0
4.78500 13257780.0
4.79500 10712510.0
4.80500 9230100.0
4.81500 10306945.0
4.82500 10111155.0
4.83500 14628310.0
4.84500 14334625.0
4.85500 15998840.0
4.86500 12614470.0
4.87500 11132060.0
4.88500 10390855.0
4.89500 9733560.0
4.90500 11215970.0
4.91500 10488750.0
4.92500 11118075.0
4.93500 9020325.0
4.94500 8964385.0
4.95500 8391000.0
4.96500 7454005.0
4.97500 8460925.0
4.98500 8852505.0
4.99500 7649795.0
5.00500 7426035.0
5.01500 6880620.0
5.02500 7286185.0
5.03500 6572950.0
5.04500 7286185.0
5.05500 7677765.0
5.06500 7174305.0
5.07500 6335205.0
5.08500 6167385.0
5.09500 5873700.0
5.10500 6740770.0
5.11500 6530995.0
5.12500 6223325.0
5.13500 7691750.0
5.14500 7118365.0
5.15500 7272200.0
5.16500 9355965.0
5.17500 10404840.0
5.18500 8349045.0
5.19500 7999420.0
5.20500 8363030.0
5.21500 6838665.0
5.22500 7230245.0
5.23500 8824535.0
5.24500 7887540.0
5.25500 7817615.0
5.26500 9300025.0
5.27500 8279120.0
5.28500 7859570.0
5.29500 7356110.0
5.30500 8153255.0
5.31500 11425745.0
5.32500 9537770.0
5.33500 9971305.0
5.34500 8237165.0
5.35500 7020470.0
5.36500 6558965.0
5.37500 6726785.0
5.38500 7579870.0
5.39500 8474910.0
5.40500 8558820.0
5.41500 9495815.0
5.42500 7579870.0
5.43500 7342125.0
5.44500 5635955.0
5.45500 7048440.0
5.46500 5957610.0
5.47500 7118365.0
5.48500 8125285.0
5.49500 7216260.0
5.50500 5999565.0
5.51500 6195355.0
5.52500 7971450.0
5.53500 7621825.0
5.54500 11090105.0
5.55500 11677475.0
5.56500 14138835.0
5.57500 16628165.0
5.58500 22445924.0
5.59500 27452556.0
5.60500 34431072.0
5.61500 41605376.0
5.62500 44038764.0
5.63500 41101916.0
5.64500 36053328.0
5.65500 27718270.0
5.66500 22194196.0
5.67500 19089524.0
5.68500 15439440.0
5.69500 13845150.0
5.70500 11831310.0
5.71500 10936270.0
5.72500 9733560.0
5.73500 9160175.0
5.74500 8321075.0
5.75500 10041230.0
5.76500 9901380.0
5.77500 9369950.0
5.78500 8922430.0
5.79500 8740625.0
5.80500 7188290.0
5.81500 6503025.0
5.82500 6111445.0
5.83500 5761820.0
5.84500 5202420.0
5.85500 6405130.0
5.86500 6279265.0
5.87500 6013550.0
5.88500 6530995.0
5.89500 6111445.0
5.90500 4377305.0
5.91500 5006630.0
5.92500 5398210.0
5.93500 6139415.0
5.94500 7230245.0
5.95500 5342270.0
5.96500 5104525.0
5.97500 5104525.0
5.98500 5104525.0
5.99500 5188435.0
6.00500 3831890.0
6.01500 4684975.0
6.02500 4125575.0
6.03500 4027680.0
6.04500 3692040.0
6.05500 3622115.0
6.06500 4349335.0
6.07500 4573095.0
6.08500 4517155.0
6.09500 4041665.0
6.10500 4181515.0
6.11500 3901815.0
6.12500 3859860.0
6.13500 3957755.0
6.14500 4307380.0
6.15500 5314300.0
6.16500 5342270.0
6.17500 5607985.0
6.18500 6013550.0
6.19500 5761820.0
6.20500 4531140.0
6.21500 4587080.0
6.22500 3915800.0
6.23500 4321365.0
6.24500 3789935.0
6.25500 4684975.0
6.26500 3216550.0
6.27500 4195500.0
6.28500 3440310.0
6.29500 3538205.0
6.30500 3747980.0
6.31500 3789935.0
6.32500 3468280.0
6.33500 2978805.0
6.34500 4307380.0
6.35500 4950690.0
6.36500 3761965.0
6.37500 4475200.0
6.38500 5775805.0
6.39500 5803775.0
6.40500 4419260.0
6.41500 4489185.0
6.42500 4153545.0
6.43500 4293395.0
6.44500 4601065.0
6.45500 4377305.0
6.46500 4013695.0
6.47500 3356400.0
6.48500 3775950.0
6.49500 4055650.0
6.50500 4405275.0
6.51500 5580015.0
6.52500 5384225.0
6.53500 4195500.0
6.54500 4531140.0
6.55500 3887830.0
6.56500 3664070.0
6.57500 5524075.0
6.58500 4391290.0
6.59500 5034600.0
6.60500 4083620.0
6.61500 5761820.0
6.62500 5174450.0
6.63500 3356400.0
6.64500 3580160.0
6.65500 3202565.0
6.66500 5510090.0
6.67500 6055505.0
6.68500 5104525.0
6.69500 4251440.0
6.70500 4643020.0
6.71500 5887685.0
6.72500 6265280.0
6.73500 4531140.0
6.74500 7188290.0
6.75500 6852650.0
6.76500 7272200.0
6.77500 5817760.0
6.78500 5873700.0
6.79500 5398210.0
6.80500 5048585.0
6.81500 5566030.0
6.82500 4670990.0
6.83500 5398210.0
6.84500 5789790.0
6.85500 3482265.0
6.86500 3761965.0
6.87500 3775950.0
6.88500 4013695.0
6.89500 4223470.0
6.90500 4489185.0
6.91500 4321365.0
6.92500 3845875.0
6.93500 3859860.0
6.94500 5034600.0
6.95500 5663925.0
6.96500 5524075.0
6.97500 5566030.0
6.98500 5538060.0
6.99500 6475055.0
7.00500 4545125.0
7.01500 5859715.0
7.02500 6265280.0
7.03500 5272345.0
7.04500 5384225.0
7.05500 4307380.0
7.06500 5607985.0
7.07500 6349190.0
7.08500 8013405.0
7.09500 6642875.0
7.10500 5370240.0
7.11500 7048440.0
7.12500 5328285.0
7.13500 5510090.0
7.14500 5244375.0
7.15500 5510090.0
7.16500 5496105.0
7.17500 7132350.0
7.18500 6642875.0
7.19500 5985580.0
7.20500 5789790.0
7.21500 4167530.0
7.22500 4531140.0
7.23500 4181515.0
7.24500 4657005.0
7.25500 4796855.0
7.26500 4321365.0
7.27500 4587080.0
7.28500 4657005.0
7.29500 5621970.0
7.30500 5048585.0
7.31500 4657005.0
7.32500 5216405.0
7.33500 5034600.0
7.34500 5775805.0
7.35500 5943625.0
7.36500 6796710.0
7.37500 6517010.0
7.38500 7593855.0
7.39500 11663490.0
7.40500 10558675.0
7.41500 12866200.0
7.42500 16446360.0
7.43500 17621100.0
7.44500 23368936.0
7.45500 25424730.0
7.46500 28893010.0
7.47500 29494364.0
7.48500 26711350.0
7.49500 25256910.0
7.50500 20711784.0
7.51500 17900800.0
7.52500 15061845.0
7.53500 13481540.0
7.54500 9873410.0
7.55500 9831455.0
7.56500 8530850.0
7.57500 7971450.0
7.58500 5677910.0
7.59500 6307235.0
7.60500 8237165.0
7.61500 6978515.0
7.62500 7244230.0
7.63500 7202275.0
7.64500 5118510.0
7.65500 4307380.0
7.66500 4209485.0
7.67500 5607985.0
7.68500 6992500.0
7.69500 6558965.0
7.70500 6265280.0
7.71500 5649940.0
7.72500 7747690.0
7.73500 5817760.0
7.74500 6195355.0
7.75500 5062570.0
7.76500 4405275.0
7.77500 5468135.0
7.78500 6041520.0
7.79500 5747835.0
7.80500 6279265.0
7.81500 6628890.0
7.82500 5845730.0
7.83500 6363175.0
7.84500 6335205.0
7.85500 6684830.0
7.86500 7160320.0
7.87500 6013550.0
7.88500 6363175.0
7.89500 4307380.0
7.90500 5398210.0
7.91500 5048585.0
7.92500 3999710.0
7.93500 3845875.0
7.94500 5062570.0
7.95500 5957610.0
7.96500 5943625.0
7.97500 6265280.0
7.98500 7593855.0
7.99500 7733705.0
8.00500 6628890.0
8.01500 5510090.0
8.02500 4824825.0
8.03500 5020615.0
8.04500 5202420.0
8.05500 6391145.0
8.06500 5020615.0
8.07500 5635955.0
8.08500 5803775.0
8.09500 5468135.0
8.10500 4573095.0
8.11500 4824825.0
8.12500 4796855.0
8.13500 5524075.0
8.14500 5230390.0
8.15500 5104525.0
8.16500 6055505.0
8.17500 4475200.0
8.18500 5090540.0
8.19500 5118510.0
8.20500 7412050.0
8.21500 6670845.0
8.22500 5663925.0
8.23500 4447230.0
8.24500 3873845.0
8.25500 4684975.0
8.26500 3957755.0
8.27500 4195500.0
8.28500 5146480.0
8.29500 5454150.0
8.30500 6572950.0
8.31500 6586935.0
8.32500 5538060.0
8.33500 4726930.0
8.34500 6153400.0
8.35500 6307235.0
8.36500 5132495.0
8.37500 5230390.0
8.38500 4684975.0
8.39500 5076555.0
8.40500 5034600.0
8.41500 3510235.0
8.42500 3048730.0
8.43500 4978660.0
8.44500 4796855.0
8.45500 4433245.0
8.46500 5440165.0
8.47500 4475200.0
8.48500 4447230.0
8.49500 4545125.0
8.50500 4125575.0
8.51500 6265280.0
8.52500 5915655.0
8.53500 5286330.0
8.54500 4461215.0
8.55500 5300315.0
8.56500 5943625.0
8.57500 5971595.0
8.58500 3999710.0
8.59500 4013695.0
8.60500 4461215.0
8.61500 4447230.0
8.62500 4265425.0
8.63500 4545125.0
8.64500 3664070.0
8.65500 3985725.0
8.66500 3608130.0
8.67500 3174595.0
8.68500 3901815.0
8.69500 4531140.0
8.70500 5468135.0
8.71500 3594145.0
8.72500 3608130.0
8.73500 4237455.0
8.74500 4838810.0
8.75500 6824680.0
8.76500 6321220.0
8.77500 4810840.0
8.78500 4698960.0
8.79500 5985580.0
8.80500 5342270.0
8.81500 6349190.0
8.82500 6363175.0
8.83500 7761675.0
8.84500 10139125.0
8.85500 8418970.0
8.86500 6740770.0
8.87500 6503025.0
8.88500 6880620.0
8.89500 6908590.0
8.90500 5677910.0
8.91500 4852795.0
8.92500 5761820.0
8.93500 5482120.0
8.94500 7691750.0
8.95500 7034455.0
8.96500 7761675.0
8.97500 9411905.0
8.98500 8460925.0
8.99500 8097315.0
9.00500 6293250.0
9.01500 6712800.0
9.02500 7146335.0
9.03500 6083475.0
9.04500 6712800.0
9.05500 5859715.0
9.06500 5272345.0
9.07500 4810840.0
9.08500 5216405.0
9.09500 5510090.0
9.10500 6894605.0
9.11500 5090540.0
9.12500 6810695.0
9.13500 7160320.0
9.14500 7789645.0
9.15500 5691895.0
9.16500 6153400.0
9.17500 5831745.0
9.18500 5090540.0
9.19500 5566030.0
9.20500 4321365.0
9.21500 5761820.0
9.22500 7062425.0
9.23500 3985725.0
9.24500 3817905.0
9.25500 3999710.0
9.26500 3608130.0
9.27500 4712945.0
9.28500 6097460.0
9.29500 6069490.0
9.30500 6027535.0
9.31500 6265280.0
9.32500 5174450.0
9.33500 5412195.0
9.34500 5901670.0
9.35500 5468135.0
9.36500 4670990.0
9.37500 4223470.0
9.38500 3636100.0
9.39500 3384370.0
9.40500 3482265.0
9.41500 3076700.0
9.42500 3384370.0
9.43500 2978805.0
9.44500 2950835.0
9.45500 3244520.0
9.46500 3678055.0
9.47500 3188580.0
9.48500 3342415.0
9.49500 3538205.0
9.50500 3048730.0
9.51500 2950835.0
9.52500 2922865.0
9.53500 3076700.0
9.54500 2461360.0
9.55500 3048730.0
9.56500 2321510.0
9.57500 2517300.0
9.58500 2699105.0
9.59500 3244520.0
9.60500 2447375.0
9.61500 2027825.0
9.62500 2615195.0
9.63500 1999855.0
9.64500 2447375.0
9.65500 3076700.0
9.66500 3692040.0
9.67500 3538205.0
9.68500 2880910.0
9.69500 1860005.0
9.70500 2559255.0
9.71500 2797000.0
9.72500 3174595.0
9.73500 3636100.0
9.74500 3817905.0
9.75500 4251440.0
9.76500 3118655.0
9.77500 3104670.0
9.78500 3020760.0
9.79500 2978805.0
9.80500 4922720.0
9.81500 7467990.0
9.82500 6475055.0
9.83500 6419115.0
9.84500 5440165.0
9.85500 5971595.0
9.86500 5538060.0
9.87500 4531140.0
9.88500 4978660.0
9.89500 5580015.0
9.90500 5663925.0
9.91500 6544980.0
9.92500 6363175.0
9.93500 3496250.0
9.94500 3174595.0
9.95500 3356400.0
9.96500 3510235.0
9.97500 3398355.0
9.98500 3020760.0
9.99500 2950835.0
