0.00500 30834724.0
0.01500 34191512.0
0.02500 30095544.0
0.03500 23472030.0
0.04500 16184470.0
0.05500 9564024.0
0.06500 6060104.0
0.07500 5167255.0
0.08500 5499628.0
0.09500 6128134.0
0.10500 6753726.0
0.11500 7390735.0
0.12500 8074316.0
0.13500 8692063.0
0.14500 9370909.0
0.15500 10030195.0
0.16500 10609634.0
0.17500 11294019.0
0.18500 11936071.0
0.19500 12577130.0
0.20500 13134929.0
0.21500 13725089.0
0.22500 14386019.0
0.23500 14923239.0
0.24500 15468009.0
0.25500 16041603.0
0.26500 16596719.0
0.27500 17242138.0
0.28500 17857024.0
0.29500 18258840.0
0.30500 18792308.0
0.31500 19258916.0
0.32500 19908520.0
0.33500 20317872.0
0.34500 20879992.0
0.35500 21367290.0
0.36500 21795444.0
0.37500 22264760.0
0.38500 22802314.0
0.39500 23252698.0
0.40500 23718856.0
0.41500 24142072.0
0.42500 24538390.0
0.43500 25055324.0
0.44500 25382460.0
0.45500 25788096.0
0.46500 26170072.0
0.47500 26659090.0
0.48500 26908792.0
0.49500 27159876.0
0.50500 27445364.0
0.51500 27791362.0
0.52500 28271502.0
0.53500 28791114.0
0.54500 28971456.0
0.55500 29109282.0
0.56500 29319372.0
0.57500 29458382.0
0.58500 29618396.0
0.59500 29827288.0
0.60500 29857892.0
0.61500 29979516.0
0.62500 30088844.0
0.63500 30220252.0
0.64500 30312914.0
0.65500 30324690.0
0.66500 30225274.0
0.67500 30160524.0
0.68500 29735468.0
0.69500 29391398.0
0.70500 28576082.0
0.71500 27270726.0
0.72500 25211124.0
0.73500 22482598.0
0.74500 18922092.0
0.75500 15515332.0
0.76500 12749116.0
0.77500 10629269.0
0.78500 9082777.0
0.79500 7844689.0
0.80500 6846800.0
0.81500 6059913.0
0.82500 5369875.0
0.83500 4820715.0
0.84500 4366994.0
0.85500 3930962.0
0.86500 3560396.0
0.87500 3234821.0
0.88500 2984298.0
0.89500 2729756.0
0.90500 2527461.0
0.91500 2309567.0
0.92500 2143202.0
0.93500 1973787.0
0.94500 1829719.0
0.95500 1699143.0
0.96500 1570234.0
0.97500 1474194.0
0.98500 1372784.0
0.99500 1278989.0
1.00500 1202081.0
1.01500 1113035.0
1.02500 1052207.0
1.03500 981971.0
1.04500 921593.0
1.05500 869021.0
1.06500 815980.0
1.07500 771860.0
1.08500 729707.0
1.09500 683462.0
1.10500 646516.0
1.11500 611958.0
1.12500 569107.0
1.13500 545789.0
1.14500 516211.0
1.15500 481352.0
1.16500 458221.0
1.17500 429437.0
1.18500 402048.0
1.19500 390283.0
1.20500 370404.0
1.21500 342960.0
1.22500 331285.0
1.23500 322031.0
1.24500 296836.0
1.25500 285399.0
1.26500 278296.0
1.27500 252899.0
1.28500 240835.0
1.29500 240426.0
1.30500 223099.0
1.31500 208325.0
1.32500 209218.0
1.33500 200584.0
1.34500 182982.0
1.35500 180945.0
1.36500 179005.0
1.37500 162294.0
1.38500 153871.0
1.39500 157953.0
1.40500 146105.0
1.41500 133130.0
1.42500 136066.0
1.43500 132103.0
1.44500 116349.0
1.45500 113749.0
1.46500 116205.0
1.47500 106090.0
1.48500 97742.0
1.49500 102516.0
1.50500 99078.0
1.51500 87775.0
1.52500 88125.0
1.53500 92151.0
1.54500 81902.0
1.55500 74684.0
1.56500 78990.0
1.57500 77536.0
1.58500 68278.0
1.59500 68333.0
1.60500 71975.0
1.61500 64854.0
1.62500 58124.0
1.63500 62538.0
1.64500 63258.0
1.65500 54879.0
1.66500 52489.0
1.67500 57541.0
1.68500 54184.0
1.69500 47868.0
1.70500 51084.0
1.71500 53524.0
1.72500 47392.0
1.73500 43711.0
1.74500 47537.0
1.75500 47152.0
1.76500 40011.0
1.77500 40034.0
1.78500 44741.0
1.79500 42048.0
1.80500 36925.0
1.81500 39879.0
1.82500 42322.0
1.83500 37630.0
1.84500 35406.0
1.85500 41109.0
1.86500 40467.0
1.87500 35411.0
1.88500 36833.0
1.89500 41469.0
1.90500 39333.0
1.91500 34182.0
1.92500 36585.0
1.93500 40227.0
1.94500 36793.0
1.95500 36776.0
1.96500 45794.0
1.97500 47878.0
1.98500 43014.0
1.99500 42194.0
2.00500 50301.0
2.01500 52616.0
2.02500 48539.0
2.03500 56670.0
2.04500 69705.0
2.05500 72768.0
2.06500 79643.0
2.07500 113587.0
2.08500 154973.0
2.09500 168296.0
2.10500 220141.0
2.11500 462124.0
2.12500 874234.0
2.13500 1301781.0
2.14500 1484075.0
2.15500 1329381.0
2.16500 977450.0
2.17500 613760.0
2.18500 351549.0
2.19500 205767.0
2.20500 134231.0
2.21500 93464.0
2.22500 69747.0
2.23500 55132.0
2.24500 44844.0
2.25500 37052.0
2.26500 30304.0
2.27500 25777.0
2.28500 22355.0
2.29500 19725.0
2.30500 16838.0
2.31500 14470.0
2.32500 13039.0
2.33500 11637.0
2.34500 10280.0
2.35500 9511.0
2.36500 8708.0
2.37500 7868.0
2.38500 7263.0
2.39500 6693.0
2.40500 6382.0
2.41500 6128.0
2.42500 5518.0
2.43500 5329.0
2.44500 4941.0
2.45500 4758.0
2.46500 4376.0
2.47500 4080.0
2.48500 3887.0
2.49500 3850.0
2.50500 3513.0
2.51500 3357.0
2.52500 3119.0
2.53500 3208.0
2.54500 2854.0
2.55500 2683.0
2.56500 2704.0
2.57500 2527.0
2.58500 2424.0
2.59500 2084.0
2.60500 2233.0
2.61500 2098.0
2.62500 1991.0
2.63500 1945.0
2.64500 1817.0
2.65500 1931.0
2.66500 1684.0
2.67500 1648.0
2.68500 1743.0
2.69500 1702.0
2.70500 1562.0
2.71500 1625.0
2.72500 1651.0
2.73500 1491.0
2.74500 1462.0
2.75500 1481.0
2.76500 1543.0
2.77500 1535.0
2.78500 1380.0
2.79500 1392.0
2.80500 1209.0
2.81500 1253.0
2.82500 1189.0
2.83500 1212.0
2.84500 1308.0
2.85500 1215.0
2.86500 1119.0
2.87500 1149.0
2.88500 1368.0
2.89500 1352.0
2.90500 1227.0
2.91500 1182.0
2.92500 1144.0
2.93500 1180.0
2.94500 946.0
2.95500 996.0
2.96500 1064.0
2.97500 1114.0
2.98500 1041.0
2.99500 896.0
3.00500 903.0
3.01500 837.0
3.02500 902.0
3.03500 1017.0
3.04500 1145.0
3.05500 1034.0
3.06500 910.0
3.07500 827.0
3.08500 815.0
3.09500 802.0
3.10500 775.0
3.11500 776.0
3.12500 774.0
3.13500 733.0
3.14500 768.0
3.15500 769.0
3.16500 720.0
3.17500 728.0
3.18500 689.0
3.19500 752.0
3.20500 806.0
3.21500 871.0
3.22500 910.0
3.23500 847.0
3.24500 973.0
3.25500 859.0
3.26500 880.0
3.27500 767.0
3.28500 605.0
3.29500 636.0
3.30500 766.0
3.31500 720.0
3.32500 704.0
3.33500 623.0
3.34500 667.0
3.35500 654.0
3.36500 551.0
3.37500 568.0
3.38500 583.0
3.39500 638.0
3.40500 635.0
3.41500 627.0
3.42500 640.0
3.43500 704.0
3.44500 664.0
3.45500 617.0
3.46500 614.0
3.47500 506.0
3.48500 532.0
3.49500 529.0
3.50500 561.0
3.51500 547.0
3.52500 615.0
3.53500 622.0
3.54500 729.0
3.55500 754.0
3.56500 652.0
3.57500 601.0
3.58500 614.0
3.59500 632.0
3.60500 556.0
3.61500 597.0
3.62500 568.0
3.63500 594.0
3.64500 631.0
3.65500 550.0
3.66500 626.0
3.67500 623.0
3.68500 585.0
3.69500 519.0
3.70500 497.0
3.71500 470.0
3.72500 472.0
3.73500 458.0
3.74500 464.0
3.75500 483.0
3.76500 517.0
3.77500 596.0
3.78500 493.0
3.79500 580.0
3.80500 538.0
3.81500 494.0
3.82500 492.0
3.83500 510.0
3.84500 562.0
3.85500 505.0
3.86500 389.0
3.87500 413.0
3.88500 463.0
3.89500 513.0
3.90500 514.0
3.91500 507.0
3.92500 596.0
3.93500 576.0
3.94500 758.0
3.95500 676.0
3.96500 708.0
3.97500 832.0
3.98500 951.0
3.99500 1051.0
4.00500 1140.0
4.01500 1452.0
4.02500 1751.0
4.03500 2084.0
4.04500 2253.0
4.05500 2889.0
4.06500 4649.0
4.07500 6869.0
4.08500 8299.0
4.09500 9133.0
4.10500 8660.0
4.11500 7799.0
4.12500 6442.0
4.13500 5212.0
4.14500 4421.0
4.15500 3502.0
4.16500 2848.0
4.17500 2535.0
4.18500 2175.0
4.19500 1923.0
4.20500 1748.0
4.21500 1536.0
4.22500 1405.0
4.23500 1239.0
4.24500 1198.0
4.25500 1065.0
4.26500 1150.0
4.27500 1104.0
4.28500 1097.0
4.29500 815.0
4.30500 856.0
4.31500 827.0
4.32500 910.0
4.33500 924.0
4.34500 767.0
4.35500 859.0
4.36500 922.0
4.37500 951.0
4.38500 825.0
4.39500 797.0
4.40500 767.0
4.41500 723.0
4.42500 730.0
4.43500 628.0
4.44500 578.0
4.45500 641.0
4.46500 590.0
4.47500 553.0
4.48500 529.0
4.49500 580.0
4.50500 514.0
4.51500 441.0
4.52500 537.0
4.53500 659.0
4.54500 615.0
4.55500 615.0
4.56500 561.0
4.57500 570.0
4.58500 566.0
4.59500 479.0
4.60500 513.0
4.61500 615.0
4.62500 674.0
4.63500 662.0
4.64500 693.0
4.65500 531.0
4.66500 625.0
4.67500 537.0
4.68500 472.0
4.69500 555.0
4.70500 606.0
4.71500 565.0
4.72500 527.0
4.73500 580.0
4.74500 448.0
4.75500 517.0
4.76500 451.0
4.77500 438.0
4.78500 350.0
4.79500 353.0
4.80500 385.0
4.81500 365.0
4.82500 297.0
4.83500 317.0
4.84500 406.0
4.85500 374.0
4.86500 369.0
4.87500 406.0
4.88500 325.0
4.89500 392.0
4.90500 432.0
4.91500 402.0
4.92500 350.0
4.93500 344.0
4.94500 356.0
4.95500 309.0
4.96500 318.0
4.97500 333.0
4.98500 403.0
4.99500 467.0
5.00500 385.0
5.01500 375.0
5.02500 456.0
5.03500 485.0
5.04500 353.0
5.05500 365.0
5.06500 307.0
5.07500 398.0
5.08500 355.0
5.09500 396.0
5.10500 396.0
5.11500 275.0
5.12500 233.0
5.13500 238.0
5.14500 281.0
5.15500 279.0
5.16500 281.0
5.17500 293.0
5.18500 268.0
5.19500 263.0
5.20500 262.0
5.21500 255.0
5.22500 267.0
5.23500 276.0
5.24500 353.0
5.25500 338.0
5.26500 302.0
5.27500 313.0
5.28500 326.0
5.29500 320.0
5.30500 290.0
5.31500 299.0
5.32500 273.0
5.33500 322.0
5.34500 369.0
5.35500 379.0
5.36500 425.0
5.37500 376.0
5.38500 417.0
5.39500 273.0
5.40500 218.0
5.41500 220.0
5.42500 243.0
5.43500 265.0
5.44500 218.0
5.45500 261.0
5.46500 301.0
5.47500 277.0
5.48500 361.0
5.49500 448.0
5.50500 438.0
5.51500 451.0
5.52500 374.0
5.53500 279.0
5.54500 302.0
5.55500 272.0
5.56500 272.0
5.57500 264.0
5.58500 289.0
5.59500 234.0
5.60500 299.0
5.61500 321.0
5.62500 353.0
5.63500 367.0
5.64500 372.0
5.65500 280.0
5.66500 377.0
5.67500 377.0
5.68500 276.0
5.69500 292.0
5.70500 295.0
5.71500 213.0
5.72500 208.0
5.73500 215.0
5.74500 230.0
5.75500 240.0
5.76500 260.0
5.77500 298.0
5.78500 428.0
5.79500 399.0
5.80500 410.0
5.81500 344.0
5.82500 173.0
5.83500 173.0
5.84500 222.0
5.85500 161.0
5.86500 178.0
5.87500 139.0
5.88500 123.0
5.89500 240.0
5.90500 211.0
5.91500 269.0
5.92500 263.0
5.93500 259.0
5.94500 250.0
5.95500 272.0
5.96500 308.0
5.97500 261.0
5.98500 290.0
5.99500 323.0
6.00500 341.0
6.01500 350.0
6.02500 375.0
6.03500 463.0
6.04500 542.0
6.05500 562.0
6.06500 590.0
6.07500 545.0
6.08500 479.0
6.09500 396.0
6.10500 440.0
6.11500 437.0
6.12500 401.0
6.13500 327.0
6.14500 348.0
6.15500 302.0
6.16500 332.0
6.17500 407.0
6.18500 312.0
6.19500 311.0
6.20500 288.0
6.21500 261.0
6.22500 253.0
6.23500 252.0
6.24500 244.0
6.25500 189.0
6.26500 228.0
6.27500 201.0
6.28500 230.0
6.29500 188.0
6.30500 196.0
6.31500 233.0
6.32500 294.0
6.33500 328.0
6.34500 341.0
6.35500 367.0
6.36500 333.0
6.37500 273.0
6.38500 264.0
6.39500 235.0
6.40500 192.0
6.41500 209.0
6.42500 212.0
6.43500 182.0
6.44500 194.0
6.45500 179.0
6.46500 208.0
6.47500 233.0
6.48500 211.0
6.49500 198.0
6.50500 215.0
6.51500 187.0
6.52500 216.0
6.53500 158.0
6.54500 152.0
6.55500 144.0
6.56500 111.0
6.57500 125.0
6.58500 101.0
6.59500 166.0
6.60500 158.0
6.61500 174.0
6.62500 164.0
6.63500 169.0
6.64500 159.0
6.65500 171.0
6.66500 155.0
6.67500 181.0
6.68500 176.0
6.69500 149.0
6.70500 167.0
6.71500 158.0
6.72500 186.0
6.73500 143.0
6.74500 153.0
6.75500 156.0
6.76500 222.0
6.77500 237.0
6.78500 238.0
6.79500 228.0
6.80500 195.0
6.81500 180.0
6.82500 136.0
6.83500 123.0
6.84500 188.0
6.85500 189.0
6.86500 167.0
6.87500 207.0
6.88500 187.0
6.89500 157.0
6.90500 128.0
6.91500 143.0
6.92500 174.0
6.93500 127.0
6.94500 166.0
6.95500 217.0
6.96500 189.0
6.97500 258.0
6.98500 216.0
6.99500 245.0
7.00500 270.0
7.01500 300.0
7.02500 278.0
7.03500 260.0
7.04500 294.0
7.05500 347.0
7.06500 460.0
7.07500 362.0
7.08500 425.0
7.09500 459.0
7.10500 575.0
7.11500 429.0
7.12500 289.0
7.13500 333.0
7.14500 320.0
7.15500 323.0
7.16500 320.0
7.17500 358.0
7.18500 370.0
7.19500 403.0
7.20500 444.0
7.21500 525.0
7.22500 412.0
7.23500 356.0
7.24500 286.0
7.25500 289.0
7.26500 302.0
7.27500 321.0
7.28500 329.0
7.29500 311.0
7.30500 297.0
7.31500 190.0
7.32500 207.0
7.33500 236.0
7.34500 246.0
7.35500 225.0
7.36500 173.0
7.37500 206.0
7.38500 216.0
7.39500 231.0
7.40500 258.0
7.41500 180.0
7.42500 229.0
7.43500 214.0
7.44500 332.0
7.45500 279.0
7.46500 327.0
7.47500 287.0
7.48500 283.0
7.49500 213.0
7.50500 223.0
7.51500 223.0
7.52500 192.0
7.53500 173.0
7.54500 232.0
7.55500 253.0
7.56500 197.0
7.57500 226.0
7.58500 164.0
7.59500 177.0
7.60500 135.0
7.61500 182.0
7.62500 230.0
7.63500 264.0
7.64500 217.0
7.65500 315.0
7.66500 275.0
7.67500 299.0
7.68500 169.0
7.69500 177.0
7.70500 211.0
7.71500 221.0
7.72500 231.0
7.73500 171.0
7.74500 150.0
7.75500 259.0
7.76500 202.0
7.77500 173.0
7.78500 206.0
7.79500 236.0
7.80500 202.0
7.81500 170.0
7.82500 204.0
7.83500 262.0
7.84500 210.0
7.85500 254.0
7.86500 253.0
7.87500 255.0
7.88500 237.0
7.89500 229.0
7.90500 253.0
7.91500 237.0
7.92500 211.0
7.93500 259.0
7.94500 280.0
7.95500 296.0
7.96500 247.0
7.97500 222.0
7.98500 239.0
7.99500 301.0
8.00500 318.0
8.01500 321.0
8.02500 291.0
8.03500 257.0
8.04500 200.0
8.05500 181.0
8.06500 141.0
8.07500 112.0
8.08500 104.0
8.09500 143.0
8.10500 126.0
8.11500 127.0
8.12500 102.0
8.13500 169.0
8.14500 188.0
8.15500 184.0
8.16500 187.0
8.17500 121.0
8.18500 98.0
8.19500 149.0
8.20500 143.0
8.21500 176.0
8.22500 137.0
8.23500 154.0
8.24500 183.0
8.25500 162.0
8.26500 169.0
8.27500 266.0
8.28500 307.0
8.29500 293.0
8.30500 268.0
8.31500 258.0
8.32500 219.0
8.33500 216.0
8.34500 238.0
8.35500 222.0
8.36500 266.0
8.37500 243.0
8.38500 423.0
8.39500 394.0
8.40500 437.0
8.41500 342.0
8.42500 206.0
8.43500 253.0
8.44500 227.0
8.45500 225.0
8.46500 271.0
8.47500 255.0
8.48500 303.0
8.49500 282.0
8.50500 266.0
8.51500 261.0
8.52500 259.0
8.53500 229.0
8.54500 153.0
8.55500 172.0
8.56500 194.0
8.57500 220.0
8.58500 272.0
8.59500 308.0
8.60500 238.0
8.61500 199.0
8.62500 245.0
8.63500 184.0
8.64500 241.0
8.65500 224.0
8.66500 234.0
8.67500 204.0
8.68500 259.0
8.69500 253.0
8.70500 325.0
8.71500 301.0
8.72500 272.0
8.73500 221.0
8.74500 263.0
8.75500 220.0
8.76500 260.0
8.77500 315.0
8.78500 244.0
8.79500 252.0
8.80500 282.0
8.81500 343.0
8.82500 332.0
8.83500 317.0
8.84500 246.0
8.85500 249.0
8.86500 227.0
8.87500 231.0
8.88500 258.0
8.89500 274.0
8.90500 240.0
8.91500 219.0
8.92500 268.0
8.93500 393.0
8.94500 467.0
8.95500 558.0
8.96500 423.0
8.97500 430.0
8.98500 410.0
8.99500 347.0
9.00500 357.0
9.01500 344.0
9.02500 357.0
9.03500 410.0
9.04500 371.0
9.05500 309.0
9.06500 415.0
9.07500 378.0
9.08500 326.0
9.09500 335.0
9.10500 345.0
9.11500 285.0
9.12500 310.0
9.13500 284.0
9.14500 267.0
9.15500 356.0
9.16500 301.0
9.17500 274.0
9.18500 245.0
9.19500 317.0
9.20500 242.0
9.21500 208.0
9.22500 336.0
9.23500 372.0
9.24500 335.0
9.25500 339.0
9.26500 470.0
9.27500 408.0
9.28500 400.0
9.29500 375.0
9.30500 390.0
9.31500 373.0
9.32500 467.0
9.33500 413.0
9.34500 389.0
9.35500 360.0
9.36500 390.0
9.37500 445.0
9.38500 439.0
9.39500 457.0
9.40500 462.0
9.41500 440.0
9.42500 434.0
9.43500 334.0
9.44500 310.0
9.45500 305.0
9.46500 288.0
9.47500 317.0
9.48500 335.0
9.49500 289.0
9.50500 330.0
9.51500 356.0
9.52500 322.0
9.53500 328.0
9.54500 282.0
9.55500 224.0
9.56500 302.0
9.57500 338.0
9.58500 368.0
9.59500 280.0
9.60500 231.0
9.61500 217.0
9.62500 288.0
9.63500 314.0
9.64500 215.0
9.65500 227.0
9.66500 219.0
9.67500 229.0
9.68500 226.0
9.69500 340.0
9.70500 297.0
9.71500 217.0
9.72500 193.0
9.73500 152.0
9.74500 175.0
9.75500 199.0
9.76500 206.0
9.77500 186.0
9.78500 167.0
9.79500 271.0
9.80500 213.0
9.81500 176.0
9.82500 200.0
9.83500 175.0
9.84500 293.0
9.85500 257.0
9.86500 251.0
9.87500 305.0
9.88500 203.0
9.89500 250.0
9.90500 326.0
9.91500 441.0
9.92500 408.0
9.93500 310.0
9.94500 364.0
9.95500 322.0
9.96500 333.0
9.97500 364.0
9.98500 298.0
9.99500 452.0
