0.00500 34190372.0
0.01500 38147824.0
0.02500 33556160.0
0.03500 26337204.0
0.04500 18167288.0
0.05500 10563479.0
0.06500 6547563.0
0.07500 5389774.0
0.08500 5719106.0
0.09500 6326377.0
0.10500 7001967.0
0.11500 7607420.0
0.12500 8264296.0
0.13500 8919049.0
0.14500 9562792.0
0.15500 10116976.0
0.16500 10687577.0
0.17500 11281119.0
0.18500 11882775.0
0.19500 12347217.0
0.20500 12931714.0
0.21500 13541589.0
0.22500 14080834.0
0.23500 14674681.0
0.24500 15112728.0
0.25500 15718731.0
0.26500 16184417.0
0.27500 16758631.0
0.28500 17205088.0
0.29500 17592444.0
0.30500 17975544.0
0.31500 18310800.0
0.32500 18951700.0
0.33500 19390460.0
0.34500 19748524.0
0.35500 20078684.0
0.36500 20540668.0
0.37500 20922890.0
0.38500 21411724.0
0.39500 21908228.0
0.40500 22301804.0
0.41500 22608772.0
0.42500 22908756.0
0.43500 23239532.0
0.44500 23527680.0
0.45500 23819516.0
0.46500 24233956.0
0.47500 24386056.0
0.48500 24627068.0
0.49500 25034332.0
0.50500 25175846.0
0.51500 25524114.0
0.52500 25846756.0
0.53500 26009342.0
0.54500 26235312.0
0.55500 26361632.0
0.56500 26484248.0
0.57500 26547464.0
0.58500 26837840.0
0.59500 26918884.0
0.60500 26970318.0
0.61500 27140860.0
0.62500 27212312.0
0.63500 27118158.0
0.64500 27093848.0
0.65500 27174992.0
0.66500 27144562.0
0.67500 27022228.0
0.68500 26888816.0
0.69500 26695750.0
0.70500 26334216.0
0.71500 25531448.0
0.72500 24560038.0
0.73500 22848368.0
0.74500 20329424.0
0.75500 17281756.0
0.76500 14230641.0
0.77500 11762880.0
0.78500 9889385.0
0.79500 8495123.0
0.80500 7446503.0
0.81500 6578121.0
0.82500 5876826.0
0.83500 5261865.0
0.84500 4748669.0
0.85500 4342890.0
0.86500 3972162.0
0.87500 3620048.0
0.88500 3337239.0
0.89500 3095794.0
0.90500 2855242.0
0.91500 2641013.0
0.92500 2463306.0
0.93500 2280345.0
0.94500 2130895.0
0.95500 1978178.0
0.96500 1855019.0
0.97500 1733371.0
0.98500 1630797.0
0.99500 1542653.0
1.00500 1450772.0
1.01500 1372048.0
1.02500 1289522.0
1.03500 1221864.0
1.04500 1161940.0
1.05500 1096968.0
1.06500 1045094.0
1.07500 996133.0
1.08500 943339.0
1.09500 891796.0
1.10500 841565.0
1.11500 793991.0
1.12500 769460.0
1.13500 729952.0
1.14500 692866.0
1.15500 672407.0
1.16500 635174.0
1.17500 603044.0
1.18500 589589.0
1.19500 559726.0
1.20500 534016.0
1.21500 526234.0
1.22500 499019.0
1.23500 475867.0
1.24500 468728.0
1.25500 441676.0
1.26500 417204.0
1.27500 413812.0
1.28500 395580.0
1.29500 371449.0
1.30500 366578.0
1.31500 358655.0
1.32500 335323.0
1.33500 328487.0
1.34500 323759.0
1.35500 302131.0
1.36500 293753.0
1.37500 292905.0
1.38500 277843.0
1.39500 262407.0
1.40500 263072.0
1.41500 249259.0
1.42500 233691.0
1.43500 234247.0
1.44500 234554.0
1.45500 215638.0
1.46500 214279.0
1.47500 217373.0
1.48500 202268.0
1.49500 193729.0
1.50500 199799.0
1.51500 191616.0
1.52500 179412.0
1.53500 183839.0
1.54500 183895.0
1.55500 167618.0
1.56500 164099.0
1.57500 171533.0
1.58500 160528.0
1.59500 149389.0
1.60500 155946.0
1.61500 154065.0
1.62500 140612.0
1.63500 140704.0
1.64500 147149.0
1.65500 137319.0
1.66500 129164.0
1.67500 135394.0
1.68500 133901.0
1.69500 122802.0
1.70500 123716.0
1.71500 130204.0
1.72500 123365.0
1.73500 116037.0
1.74500 121782.0
1.75500 121281.0
1.76500 112015.0
1.77500 115010.0
1.78500 123064.0
1.79500 115654.0
1.80500 110334.0
1.81500 118355.0
1.82500 122319.0
1.83500 113206.0
1.84500 117694.0
1.85500 132578.0
1.86500 128166.0
1.87500 122762.0
1.88500 137304.0
1.89500 146246.0
1.90500 137169.0
1.91500 142039.0
1.92500 163528.0
1.93500 168667.0
1.94500 157667.0
1.95500 176428.0
1.96500 205935.0
1.97500 207425.0
1.98500 214438.0
1.99500 261929.0
2.00500 306925.0
2.01500 333221.0
2.02500 432606.0
2.03500 630010.0
2.04500 841073.0
2.05500 1322818.0
2.06500 2482837.0
2.07500 4336752.0
2.08500 6151483.0
2.09500 6746334.0
2.10500 5937647.0
2.11500 4199364.0
2.12500 2439389.0
2.13500 1203379.0
2.14500 675686.0
2.15500 433811.0
2.16500 288490.0
2.17500 200641.0
2.18500 150367.0
2.19500 118134.0
2.20500 93475.0
2.21500 72358.0
2.22500 59711.0
2.23500 49574.0
2.24500 41296.0
2.25500 34433.0
2.26500 29269.0
2.27500 25494.0
2.28500 21811.0
2.29500 18702.0
2.30500 16697.0
2.31500 14680.0
2.32500 13206.0
2.33500 11848.0
2.34500 11029.0
2.35500 10571.0
2.36500 10186.0
2.37500 9357.0
2.38500 8958.0
2.39500 8913.0
2.40500 8313.0
2.41500 7820.0
2.42500 7767.0
2.43500 7578.0
2.44500 6968.0
2.45500 6764.0
2.46500 6780.0
2.47500 6503.0
2.48500 6182.0
2.49500 6030.0
2.50500 6116.0
2.51500 5896.0
2.52500 5507.0
2.53500 5674.0
2.54500 5580.0
2.55500 5442.0
2.56500 5001.0
2.57500 4903.0
2.58500 4974.0
2.59500 4765.0
2.60500 4562.0
2.61500 4549.0
2.62500 4465.0
2.63500 4501.0
2.64500 4074.0
2.65500 3963.0
2.66500 3942.0
2.67500 3586.0
2.68500 3622.0
2.69500 3670.0
2.70500 3484.0
2.71500 3374.0
2.72500 3355.0
2.73500 3315.0
2.74500 3147.0
2.75500 2763.0
2.76500 2944.0
2.77500 2954.0
2.78500 2638.0
2.79500 2538.0
2.80500 2643.0
2.81500 2657.0
2.82500 2352.0
2.83500 2312.0
2.84500 2303.0
2.85500 2275.0
2.86500 2125.0
2.87500 2172.0
2.88500 2339.0
2.89500 2044.0
2.90500 1869.0
2.91500 2011.0
2.92500 2139.0
2.93500 1960.0
2.94500 1708.0
2.95500 1825.0
2.96500 1886.0
2.97500 1637.0
2.98500 1765.0
2.99500 2087.0
3.00500 1958.0
3.01500 1772.0
3.02500 1731.0
3.03500 1680.0
3.04500 1648.0
3.05500 1425.0
3.06500 1366.0
3.07500 1522.0
3.08500 1561.0
3.09500 1485.0
3.10500 1452.0
3.11500 1465.0
3.12500 1497.0
3.13500 1417.0
3.14500 1434.0
3.15500 1561.0
3.16500 1370.0
3.17500 1183.0
3.18500 1385.0
3.19500 1356.0
3.20500 1239.0
3.21500 1244.0
3.22500 1359.0
3.23500 1228.0
3.24500 1173.0
3.25500 1296.0
3.26500 1446.0
3.27500 1341.0
3.28500 1185.0
3.29500 1252.0
3.30500 1188.0
3.31500 1080.0
3.32500 1051.0
3.33500 1280.0
3.34500 1225.0
3.35500 1093.0
3.36500 980.0
3.37500 1148.0
3.38500 1201.0
3.39500 1175.0
3.40500 1147.0
3.41500 1185.0
3.42500 1133.0
3.43500 1072.0
3.44500 1049.0
3.45500 1107.0
3.46500 859.0
3.47500 826.0
3.48500 793.0
3.49500 916.0
3.50500 989.0
3.51500 931.0
3.52500 849.0
3.53500 877.0
3.54500 890.0
3.55500 859.0
3.56500 1011.0
3.57500 986.0
3.58500 956.0
3.59500 843.0
3.60500 820.0
3.61500 858.0
3.62500 851.0
3.63500 841.0
3.64500 987.0
3.65500 992.0
3.66500 866.0
3.67500 995.0
3.68500 1075.0
3.69500 1087.0
3.70500 1040.0
3.71500 1236.0
3.72500 1386.0
3.73500 1456.0
3.74500 1400.0
3.75500 1548.0
3.76500 1642.0
3.77500 1605.0
3.78500 1502.0
3.79500 1724.0
3.80500 1884.0
3.81500 1901.0
3.82500 1780.0
3.83500 2088.0
3.84500 2396.0
3.85500 2320.0
3.86500 2251.0
3.87500 2950.0
3.88500 3622.0
3.89500 4204.0
3.90500 5047.0
3.91500 7346.0
3.92500 10546.0
3.93500 15725.0
3.94500 26392.0
3.95500 49997.0
3.96500 87310.0
3.97500 123370.0
3.98500 145601.0
3.99500 142511.0
4.00500 119578.0
4.01500 89739.0
4.02500 64247.0
4.03500 44726.0
4.04500 31778.0
4.05500 22702.0
4.06500 16011.0
4.07500 12400.0
4.08500 9580.0
4.09500 7708.0
4.10500 6172.0
4.11500 5313.0
4.12500 4421.0
4.13500 3700.0
4.14500 3309.0
4.15500 2888.0
4.16500 2498.0
4.17500 2127.0
4.18500 1854.0
4.19500 1726.0
4.20500 1556.0
4.21500 1410.0
4.22500 1308.0
4.23500 1194.0
4.24500 1047.0
4.25500 1025.0
4.26500 949.0
4.27500 896.0
4.28500 842.0
4.29500 954.0
4.30500 896.0
4.31500 782.0
4.32500 682.0
4.33500 742.0
4.34500 779.0
4.35500 765.0
4.36500 660.0
4.37500 683.0
4.38500 652.0
4.39500 667.0
4.40500 637.0
4.41500 661.0
4.42500 703.0
4.43500 675.0
4.44500 621.0
4.45500 660.0
4.46500 617.0
4.47500 590.0
4.48500 663.0
4.49500 482.0
4.50500 519.0
4.51500 508.0
4.52500 500.0
4.53500 534.0
4.54500 514.0
4.55500 520.0
4.56500 573.0
4.57500 459.0
4.58500 461.0
4.59500 436.0
4.60500 365.0
4.61500 372.0
4.62500 355.0
4.63500 362.0
4.64500 489.0
4.65500 415.0
4.66500 404.0
4.67500 348.0
4.68500 453.0
4.69500 408.0
4.70500 376.0
4.71500 359.0
4.72500 398.0
4.73500 433.0
4.74500 490.0
4.75500 545.0
4.76500 527.0
4.77500 445.0
4.78500 383.0
4.79500 388.0
4.80500 397.0
4.81500 383.0
4.82500 370.0
4.83500 421.0
4.84500 442.0
4.85500 459.0
4.86500 320.0
4.87500 301.0
4.88500 303.0
4.89500 369.0
4.90500 416.0
4.91500 407.0
4.92500 343.0
4.93500 421.0
4.94500 381.0
4.95500 364.0
4.96500 406.0
4.97500 357.0
4.98500 397.0
4.99500 358.0
5.00500 277.0
5.01500 335.0
5.02500 328.0
5.03500 249.0
5.04500 228.0
5.05500 275.0
5.06500 322.0
5.07500 366.0
5.08500 385.0
5.09500 336.0
5.10500 347.0
5.11500 315.0
5.12500 301.0
5.13500 315.0
5.14500 304.0
5.15500 277.0
5.16500 296.0
5.17500 286.0
5.18500 304.0
5.19500 335.0
5.20500 325.0
5.21500 549.0
5.22500 474.0
5.23500 318.0
5.24500 283.0
5.25500 254.0
5.26500 219.0
5.27500 237.0
5.28500 229.0
5.29500 225.0
5.30500 208.0
5.31500 253.0
5.32500 223.0
5.33500 188.0
5.34500 205.0
5.35500 220.0
5.36500 211.0
5.37500 262.0
5.38500 267.0
5.39500 266.0
5.40500 237.0
5.41500 234.0
5.42500 287.0
5.43500 307.0
5.44500 241.0
5.45500 252.0
5.46500 304.0
5.47500 336.0
5.48500 479.0
5.49500 312.0
5.50500 332.0
5.51500 357.0
5.52500 349.0
5.53500 325.0
5.54500 302.0
5.55500 331.0
5.56500 311.0
5.57500 269.0
5.58500 235.0
5.59500 265.0
5.60500 266.0
5.61500 283.0
5.62500 300.0
5.63500 332.0
5.64500 269.0
5.65500 316.0
5.66500 347.0
5.67500 214.0
5.68500 226.0
5.69500 249.0
5.70500 225.0
5.71500 262.0
5.72500 312.0
5.73500 254.0
5.74500 255.0
5.75500 322.0
5.76500 226.0
5.77500 271.0
5.78500 210.0
5.79500 165.0
5.80500 288.0
5.81500 274.0
5.82500 262.0
5.83500 299.0
5.84500 361.0
5.85500 455.0
5.86500 549.0
5.87500 753.0
5.88500 1250.0
5.89500 1888.0
5.90500 2319.0
5.91500 2835.0
5.92500 3112.0
5.93500 2884.0
5.94500 2817.0
5.95500 2443.0
5.96500 1983.0
5.97500 1539.0
5.98500 1381.0
5.99500 1020.0
6.00500 796.0
6.01500 755.0
6.02500 605.0
6.03500 491.0
6.04500 524.0
6.05500 508.0
6.06500 471.0
6.07500 435.0
6.08500 505.0
6.09500 451.0
6.10500 312.0
6.11500 371.0
6.12500 359.0
6.13500 324.0
6.14500 292.0
6.15500 272.0
6.16500 266.0
6.17500 234.0
6.18500 208.0
6.19500 240.0
6.20500 456.0
6.21500 379.0
6.22500 322.0
6.23500 322.0
6.24500 305.0
6.25500 315.0
6.26500 345.0
6.27500 260.0
6.28500 370.0
6.29500 389.0
6.30500 447.0
6.31500 340.0
6.32500 360.0
6.33500 338.0
6.34500 368.0
6.35500 380.0
6.36500 382.0
6.37500 370.0
6.38500 399.0
6.39500 394.0
6.40500 379.0
6.41500 439.0
6.42500 492.0
6.43500 464.0
6.44500 356.0
6.45500 331.0
6.46500 273.0
6.47500 298.0
6.48500 279.0
6.49500 380.0
6.50500 247.0
6.51500 250.0
6.52500 224.0
6.53500 262.0
6.54500 322.0
6.55500 284.0
6.56500 400.0
6.57500 427.0
6.58500 461.0
6.59500 551.0
6.60500 498.0
6.61500 462.0
6.62500 344.0
6.63500 397.0
6.64500 401.0
6.65500 391.0
6.66500 372.0
6.67500 424.0
6.68500 382.0
6.69500 438.0
6.70500 392.0
6.71500 500.0
6.72500 393.0
6.73500 306.0
6.74500 294.0
6.75500 397.0
6.76500 754.0
6.77500 616.0
6.78500 585.0
6.79500 552.0
6.80500 405.0
6.81500 494.0
6.82500 463.0
6.83500 408.0
6.84500 405.0
6.85500 436.0
6.86500 382.0
6.87500 350.0
6.88500 325.0
6.89500 315.0
6.90500 392.0
6.91500 428.0
6.92500 416.0
6.93500 360.0
6.94500 352.0
6.95500 271.0
6.96500 287.0
6.97500 334.0
6.98500 359.0
6.99500 352.0
7.00500 274.0
7.01500 290.0
7.02500 298.0
7.03500 274.0
7.04500 333.0
7.05500 354.0
7.06500 313.0
7.07500 339.0
7.08500 357.0
7.09500 291.0
7.10500 237.0
7.11500 243.0
7.12500 300.0
7.13500 270.0
7.14500 344.0
7.15500 230.0
7.16500 301.0
7.17500 329.0
7.18500 428.0
7.19500 315.0
7.20500 321.0
7.21500 333.0
7.22500 265.0
7.23500 403.0
7.24500 427.0
7.25500 286.0
7.26500 297.0
7.27500 226.0
7.28500 264.0
7.29500 309.0
7.30500 272.0
7.31500 240.0
7.32500 211.0
7.33500 269.0
7.34500 259.0
7.35500 584.0
7.36500 501.0
7.37500 511.0
7.38500 345.0
7.39500 362.0
7.40500 330.0
7.41500 370.0
7.42500 366.0
7.43500 292.0
7.44500 351.0
7.45500 412.0
7.46500 482.0
7.47500 501.0
7.48500 515.0
7.49500 501.0
7.50500 410.0
7.51500 486.0
7.52500 489.0
7.53500 514.0
7.54500 533.0
7.55500 524.0
7.56500 641.0
7.57500 610.0
7.58500 537.0
7.59500 556.0
7.60500 512.0
7.61500 344.0
7.62500 322.0
7.63500 352.0
7.64500 320.0
7.65500 211.0
7.66500 294.0
7.67500 311.0
7.68500 249.0
7.69500 226.0
7.70500 242.0
7.71500 226.0
7.72500 289.0
7.73500 303.0
7.74500 289.0
7.75500 295.0
7.76500 334.0
7.77500 337.0
7.78500 253.0
7.79500 278.0
7.80500 328.0
7.81500 329.0
7.82500 372.0
7.83500 359.0
7.84500 397.0
7.85500 430.0
7.86500 345.0
7.87500 369.0
7.88500 389.0
7.89500 392.0
7.90500 356.0
7.91500 318.0
7.92500 229.0
7.93500 163.0
7.94500 177.0
7.95500 188.0
7.96500 212.0
7.97500 208.0
7.98500 246.0
7.99500 302.0
8.00500 338.0
8.01500 238.0
8.02500 290.0
8.03500 284.0
8.04500 302.0
8.05500 269.0
8.06500 384.0
8.07500 306.0
8.08500 283.0
8.09500 279.0
8.10500 297.0
8.11500 247.0
8.12500 251.0
8.13500 159.0
8.14500 244.0
8.15500 284.0
8.16500 272.0
8.17500 200.0
8.18500 141.0
8.19500 136.0
8.20500 162.0
8.21500 202.0
8.22500 182.0
8.23500 172.0
8.24500 243.0
8.25500 224.0
8.26500 186.0
8.27500 222.0
8.28500 221.0
8.29500 228.0
8.30500 230.0
8.31500 214.0
8.32500 274.0
8.33500 288.0
8.34500 239.0
8.35500 194.0
8.36500 149.0
8.37500 163.0
8.38500 180.0
8.39500 171.0
8.40500 135.0
8.41500 150.0
8.42500 160.0
8.43500 110.0
8.44500 171.0
8.45500 192.0
8.46500 138.0
8.47500 108.0
8.48500 94.0
8.49500 112.0
8.50500 110.0
8.51500 130.0
8.52500 167.0
8.53500 160.0
8.54500 207.0
8.55500 144.0
8.56500 147.0
8.57500 179.0
8.58500 173.0
8.59500 145.0
8.60500 167.0
8.61500 194.0
8.62500 189.0
8.63500 181.0
8.64500 221.0
8.65500 233.0
8.66500 263.0
8.67500 209.0
8.68500 236.0
8.69500 278.0
8.70500 200.0
8.71500 255.0
8.72500 340.0
8.73500 363.0
8.74500 315.0
8.75500 294.0
8.76500 379.0
8.77500 407.0
8.78500 341.0
8.79500 296.0
8.80500 237.0
8.81500 341.0
8.82500 360.0
8.83500 340.0
8.84500 280.0
8.85500 318.0
8.86500 309.0
8.87500 251.0
8.88500 316.0
8.89500 421.0
8.90500 463.0
8.91500 530.0
8.92500 451.0
8.93500 406.0
8.94500 454.0
8.95500 348.0
8.96500 400.0
8.97500 318.0
8.98500 319.0
8.99500 301.0
9.00500 222.0
9.01500 261.0
9.02500 253.0
9.03500 289.0
9.04500 332.0
9.05500 312.0
9.06500 356.0
9.07500 264.0
9.08500 320.0
9.09500 385.0
9.10500 370.0
9.11500 258.0
9.12500 302.0
9.13500 326.0
9.14500 255.0
9.15500 269.0
9.16500 328.0
9.17500 287.0
9.18500 333.0
9.19500 355.0
9.20500 381.0
9.21500 365.0
9.22500 438.0
9.23500 404.0
9.24500 297.0
9.25500 398.0
9.26500 389.0
9.27500 318.0
9.28500 382.0
9.29500 384.0
9.30500 344.0
9.31500 362.0
9.32500 299.0
9.33500 259.0
9.34500 316.0
9.35500 307.0
9.36500 336.0
9.37500 317.0
9.38500 302.0
9.39500 308.0
9.40500 310.0
9.41500 389.0
9.42500 402.0
9.43500 334.0
9.44500 313.0
9.45500 365.0
9.46500 318.0
9.47500 297.0
9.48500 312.0
9.49500 331.0
9.50500 338.0
9.51500 440.0
9.52500 459.0
9.53500 363.0
9.54500 454.0
9.55500 339.0
9.56500 538.0
9.57500 403.0
9.58500 352.0
9.59500 413.0
9.60500 405.0
9.61500 493.0
9.62500 505.0
9.63500 559.0
9.64500 668.0
9.65500 489.0
9.66500 400.0
9.67500 364.0
9.68500 338.0
9.69500 386.0
9.70500 277.0
9.71500 322.0
9.72500 348.0
9.73500 346.0
9.74500 271.0
9.75500 294.0
9.76500 299.0
9.77500 338.0
9.78500 352.0
9.79500 437.0
9.80500 358.0
9.81500 478.0
9.82500 407.0
9.83500 346.0
9.84500 355.0
9.85500 428.0
9.86500 384.0
9.87500 344.0
9.88500 348.0
9.89500 279.0
9.90500 266.0
9.91500 330.0
9.92500 372.0
9.93500 280.0
9.94500 313.0
9.95500 295.0
9.96500 237.0
9.97500 232.0
9.98500 275.0
9.99500 268.0
10.00500 315.0
10.01500 364.0
10.02500 334.0
10.03500 224.0
10.04500 263.0
10.05500 182.0
10.06500 223.0
10.07500 229.0
10.08500 214.0
10.09500 246.0
10.10500 256.0
10.11500 233.0
10.12500 281.0
10.13500 215.0
10.14500 239.0
10.15500 267.0
10.16500 255.0
10.17500 278.0
10.18500 372.0
10.19500 331.0
10.20500 280.0
10.21500 268.0
10.22500 315.0
10.23500 325.0
10.24500 328.0
10.25500 241.0
10.26500 162.0
10.27500 156.0
10.28500 192.0
10.29500 206.0
10.30500 248.0
10.31500 248.0
10.32500 222.0
10.33500 205.0
10.34500 214.0
10.35500 192.0
10.36500 223.0
10.37500 299.0
10.38500 233.0
10.39500 300.0
10.40500 261.0
10.41500 333.0
10.42500 375.0
10.43500 456.0
10.44500 379.0
10.45500 333.0
10.46500 469.0
10.47500 392.0
10.48500 351.0
10.49500 373.0
10.50500 335.0
10.51500 362.0
10.52500 428.0
10.53500 386.0
10.54500 368.0
10.55500 427.0
10.56500 334.0
10.57500 329.0
10.58500 262.0
10.59500 326.0
10.60500 370.0
10.61500 442.0
10.62500 510.0
10.63500 457.0
10.64500 479.0
10.65500 421.0
10.66500 391.0
10.67500 386.0
10.68500 593.0
10.69500 405.0
10.70500 302.0
10.71500 354.0
10.72500 412.0
10.73500 408.0
10.74500 584.0
10.75500 475.0
10.76500 569.0
10.77500 667.0
10.78500 665.0
10.79500 593.0
10.80500 737.0
10.81500 496.0
10.82500 449.0
10.83500 491.0
10.84500 382.0
10.85500 486.0
10.86500 461.0
10.87500 462.0
10.88500 511.0
10.89500 411.0
10.90500 389.0
10.91500 339.0
10.92500 405.0
10.93500 481.0
10.94500 391.0
10.95500 410.0
10.96500 344.0
10.97500 270.0
10.98500 295.0
10.99500 295.0
11.00500 320.0
11.01500 340.0
11.02500 416.0
11.03500 490.0
11.04500 464.0
11.05500 471.0
11.06500 484.0
11.07500 691.0
11.08500 576.0
11.09500 562.0
11.10500 624.0
11.11500 781.0
11.12500 585.0
11.13500 702.0
11.14500 766.0
11.15500 612.0
11.16500 495.0
11.17500 648.0
11.18500 664.0
11.19500 716.0
11.20500 818.0
11.21500 704.0
11.22500 699.0
11.23500 596.0
11.24500 576.0
11.25500 565.0
11.26500 551.0
11.27500 556.0
11.28500 669.0
11.29500 527.0
11.30500 593.0
11.31500 522.0
11.32500 522.0
11.33500 586.0
11.34500 742.0
11.35500 551.0
11.36500 380.0
11.37500 450.0
11.38500 419.0
11.39500 418.0
11.40500 401.0
11.41500 514.0
11.42500 452.0
11.43500 523.0
11.44500 510.0
11.45500 629.0
11.46500 631.0
11.47500 770.0
11.48500 645.0
11.49500 444.0
11.50500 626.0
11.51500 628.0
11.52500 522.0
11.53500 626.0
11.54500 517.0
11.55500 434.0
11.56500 550.0
11.57500 550.0
11.58500 980.0
11.59500 887.0
11.60500 796.0
11.61500 654.0
11.62500 541.0
11.63500 411.0
11.64500 530.0
11.65500 646.0
11.66500 739.0
11.67500 757.0
11.68500 872.0
11.69500 973.0
11.70500 892.0
11.71500 1002.0
11.72500 675.0
11.73500 699.0
11.74500 859.0
11.75500 984.0
11.76500 748.0
11.77500 601.0
11.78500 731.0
11.79500 826.0
11.80500 694.0
11.81500 770.0
11.82500 829.0
11.83500 939.0
11.84500 744.0
11.85500 520.0
11.86500 510.0
11.87500 791.0
11.88500 727.0
11.89500 934.0
11.90500 1126.0
11.91500 1017.0
11.92500 972.0
11.93500 895.0
11.94500 685.0
11.95500 555.0
11.96500 612.0
11.97500 575.0
11.98500 662.0
11.99500 817.0
