-0.78600 6.0
-0.78100 4.0
-0.77600 4.0
-0.77100 10.0
-0.76600 12.0
-0.76100 8.0
-0.75600 5.0
-0.75100 14.0
-0.74600 8.0
-0.74100 10.0
-0.73600 6.0
-0.73100 23.0
-0.72600 12.0
-0.72100 3.0
-0.71600 11.0
-0.71100 8.0
-0.70600 13.0
-0.70100 10.0
-0.69600 5.0
-0.69100 12.0
-0.68600 10.0
-0.68100 6.0
-0.67600 7.0
-0.67100 12.0
-0.66600 14.0
-0.66100 11.0
-0.65600 14.0
-0.65100 9.0
-0.64600 10.0
-0.64100 15.0
-0.63600 6.0
-0.63100 4.0
-0.62600 12.0
-0.62100 7.0
-0.61600 12.0
-0.61100 12.0
-0.60600 8.0
-0.60100 5.0
-0.59600 5.0
-0.59100 11.0
-0.58600 8.0
-0.58100 7.0
-0.57600 12.0
-0.57100 6.0
-0.56600 8.0
-0.56100 8.0
-0.55600 11.0
-0.55100 5.0
-0.54600 11.0
-0.54100 6.0
-0.53600 8.0
-0.53100 7.0
-0.52600 5.0
-0.52100 10.0
-0.51600 7.0
-0.51100 4.0
-0.50600 10.0
-0.50100 8.0
-0.49600 9.0
-0.49100 9.0
-0.48600 9.0
-0.48100 9.0
-0.47600 7.0
-0.47100 7.0
-0.46600 9.0
-0.46100 7.0
-0.45600 14.0
-0.45100 10.0
-0.44600 9.0
-0.44100 8.0
-0.43600 13.0
-0.43100 17.0
-0.42600 8.0
-0.42100 10.0
-0.41600 6.0
-0.41100 9.0
-0.40600 3.0
-0.40100 9.0
-0.39600 13.0
-0.39100 11.0
-0.38600 8.0
-0.38100 12.0
-0.37600 7.0
-0.37100 10.0
-0.36600 11.0
-0.36100 8.0
-0.35600 5.0
-0.35100 11.0
-0.34600 7.0
-0.34100 7.0
-0.33600 5.0
-0.33100 9.0
-0.32600 8.0
-0.32100 6.0
-0.31600 6.0
-0.31100 9.0
-0.30600 4.0
-0.30100 6.0
-0.29600 6.0
-0.29100 14.0
-0.28600 10.0
-0.28100 10.0
-0.27600 7.0
-0.27100 8.0
-0.26600 10.0
-0.26100 12.0
-0.25600 6.0
-0.25100 7.0
-0.24600 7.0
-0.24100 8.0
-0.23600 8.0
-0.23100 7.0
-0.22600 10.0
-0.22100 6.0
-0.21600 10.0
-0.21100 11.0
-0.20600 5.0
-0.20100 8.0
-0.19600 9.0
-0.19100 8.0
-0.18600 9.0
-0.18100 8.0
-0.17600 8.0
-0.17100 6.0
-0.16600 13.0
-0.16100 29.0
-0.15600 11.0
-0.15100 11.0
-0.14600 9.0
-0.14100 12.0
-0.13600 10.0
-0.13100 14.0
-0.12600 10.0
-0.12100 13.0
-0.11600 10.0
-0.11100 14.0
-0.10600 7.0
-0.10100 10.0
-0.09600 8.0
-0.09100 11.0
-0.08600 9.0
-0.08100 7.0
-0.07600 12.0
-0.07100 13.0
-0.06600 16.0
-0.06100 10.0
-0.05600 17.0
-0.05100 14.0
-0.04600 7.0
-0.04100 10.0
-0.03600 12.0
-0.03100 9.0
-0.02600 13.0
-0.02100 5.0
-0.01600 9.0
-0.01100 12.0
-0.00600 10.0
-0.00100 8.0
0.00400 15.0
0.00900 3.0
0.01400 7.0
0.01900 6.0
0.02400 9.0
0.02900 9.0
0.03400 11.0
0.03900 7.0
0.04400 8.0
0.04900 6.0
0.05400 13.0
0.05900 13.0
0.06400 6.0
0.06900 8.0
0.07400 7.0
0.07900 7.0
0.08400 9.0
0.08900 15.0
0.09400 15.0
0.09900 9.0
0.10400 10.0
0.10900 10.0
0.11400 6.0
0.11900 12.0
0.12400 17.0
0.12900 11.0
0.13400 23.0
0.13900 9.0
0.14400 20.0
0.14900 11.0
0.15400 17.0
0.15900 20.0
0.16400 18.0
0.16900 10.0
0.17400 21.0
0.17900 13.0
0.18400 13.0
0.18900 17.0
0.19400 21.0
0.19900 9.0
0.20400 27.0
0.20900 19.0
0.21400 19.0
0.21900 20.0
0.22400 19.0
0.22900 29.0
0.23400 21.0
0.23900 25.0
0.24400 22.0
0.24900 32.0
0.25400 22.0
0.25900 28.0
0.26400 26.0
0.26900 26.0
0.27400 23.0
0.27900 21.0
0.28400 22.0
0.28900 16.0
0.29400 25.0
0.29900 34.0
0.30400 31.0
0.30900 32.0
0.31400 35.0
0.31900 26.0
0.32400 30.0
0.32900 33.0
0.33400 32.0
0.33900 39.0
0.34400 26.0
0.34900 23.0
0.35400 25.0
0.35900 37.0
0.36400 37.0
0.36900 42.0
0.37400 34.0
0.37900 36.0
0.38400 32.0
0.38900 46.0
0.39400 35.0
0.39900 44.0
0.40400 38.0
0.40900 44.0
0.41400 42.0
0.41900 37.0
0.42400 45.0
0.42900 43.0
0.43400 48.0
0.43900 57.0
0.44400 55.0
0.44900 55.0
0.45400 70.0
0.45900 70.0
0.46400 84.0
0.46900 80.0
0.47400 79.0
0.47900 103.0
0.48400 95.0
0.48900 77.0
0.49400 108.0
0.49900 105.0
0.50400 116.0
0.50900 111.0
0.51400 120.0
0.51900 162.0
0.52400 153.0
0.52900 183.0
0.53400 163.0
0.53900 170.0
0.54400 185.0
0.54900 241.0
0.55400 211.0
0.55900 246.0
0.56400 252.0
0.56900 258.0
0.57400 282.0
0.57900 282.0
0.58400 317.0
0.58900 335.0
0.59400 359.0
0.59900 397.0
0.60400 375.0
0.60900 399.0
0.61400 424.0
0.61900 511.0
0.62400 497.0
0.62900 526.0
0.63400 551.0
0.63900 599.0
0.64400 660.0
0.64900 731.0
0.65400 777.0
0.65900 979.0
0.66400 1155.0
0.66900 1365.0
0.67400 1601.0
0.67900 3358.0
0.68400 16003.0
0.68900 81686.0
0.69400 324267.0
0.69900 799866.0
0.70400 1257186.0
0.70900 1401747.0
0.71400 1265840.0
0.71900 988626.0
0.72400 686839.0
0.72900 386876.0
0.73400 138181.0
0.73900 29257.0
0.74400 6181.0
0.74900 2756.0
0.75400 1882.0
0.75900 1463.0
0.76400 1126.0
0.76900 997.0
0.77400 845.0
0.77900 768.0
0.78400 682.0
0.78900 593.0
0.79400 506.0
0.79900 493.0
0.80400 465.0
0.80900 385.0
0.81400 349.0
0.81900 344.0
0.82400 310.0
0.82900 328.0
0.83400 320.0
0.83900 283.0
0.84400 274.0
0.84900 243.0
0.85400 243.0
0.85900 256.0
0.86400 208.0
0.86900 175.0
0.87400 179.0
0.87900 201.0
0.88400 161.0
0.88900 145.0
0.89400 166.0
0.89900 140.0
0.90400 142.0
0.90900 84.0
0.91400 118.0
0.91900 116.0
0.92400 97.0
0.92900 101.0
0.93400 84.0
0.93900 71.0
0.94400 69.0
0.94900 50.0
0.95400 62.0
0.95900 47.0
0.96400 56.0
0.96900 53.0
0.97400 54.0
0.97900 51.0
0.98400 56.0
0.98900 52.0
0.99400 46.0
0.99900 39.0
1.00400 33.0
1.00900 39.0
1.01400 43.0
1.01900 33.0
1.02400 36.0
1.02900 38.0
1.03400 29.0
1.03900 29.0
1.04400 30.0
1.04900 26.0
1.05400 24.0
1.05900 24.0
1.06400 28.0
1.06900 31.0
1.07400 17.0
1.07900 33.0
1.08400 27.0
1.08900 20.0
1.09400 19.0
1.09900 25.0
1.10400 31.0
1.10900 30.0
1.11400 21.0
1.11900 29.0
1.12400 17.0
1.12900 22.0
1.13400 25.0
1.13900 15.0
1.14400 23.0
1.14900 25.0
1.15400 19.0
1.15900 25.0
1.16400 17.0
1.16900 14.0
1.17400 20.0
1.17900 13.0
1.18400 15.0
1.18900 18.0
1.19400 16.0
1.19900 19.0
1.20400 10.0
1.20900 11.0
1.21400 16.0
1.21900 14.0
1.22400 8.0
1.22900 14.0
1.23400 11.0
1.23900 17.0
1.24400 11.0
1.24900 8.0
1.25400 16.0
1.25900 16.0
1.26400 11.0
1.26900 17.0
1.27400 8.0
1.27900 13.0
1.28400 15.0
1.28900 15.0
1.29400 7.0
1.29900 14.0
1.30400 11.0
1.30900 7.0
1.31400 10.0
1.31900 11.0
1.32400 11.0
1.32900 14.0
1.33400 8.0
1.33900 14.0
1.34400 12.0
1.34900 9.0
1.35400 9.0
1.35900 10.0
1.36400 20.0
1.36900 7.0
1.37400 12.0
1.37900 19.0
1.38400 17.0
1.38900 10.0
1.39400 8.0
1.39900 8.0
1.40400 15.0
1.40900 15.0
1.41400 11.0
1.41900 15.0
1.42400 14.0
1.42900 8.0
1.43400 10.0
1.43900 10.0
1.44400 12.0
1.44900 13.0
1.45400 7.0
1.45900 16.0
1.46400 13.0
1.46900 13.0
1.47400 11.0
1.47900 9.0
1.48400 9.0
1.48900 11.0
1.49400 16.0
1.49900 14.0
1.50400 11.0
1.50900 10.0
1.51400 12.0
1.51900 14.0
1.52400 6.0
1.52900 7.0
1.53400 13.0
1.53900 13.0
1.54400 12.0
1.54900 14.0
1.55400 10.0
1.55900 11.0
1.56400 22.0
1.56900 12.0
1.57400 11.0
1.57900 11.0
1.58400 11.0
1.58900 8.0
1.59400 12.0
1.59900 11.0
1.60400 15.0
1.60900 11.0
1.61400 8.0
1.61900 10.0
1.62400 8.0
1.62900 14.0
1.63400 17.0
1.63900 18.0
1.64400 6.0
1.64900 10.0
1.65400 15.0
1.65900 23.0
1.66400 15.0
1.66900 7.0
1.67400 15.0
1.67900 16.0
1.68400 14.0
1.68900 15.0
1.69400 18.0
1.69900 8.0
1.70400 17.0
1.70900 18.0
1.71400 17.0
1.71900 9.0
1.72400 10.0
1.72900 17.0
1.73400 14.0
1.73900 14.0
1.74400 15.0
1.74900 11.0
1.75400 14.0
1.75900 13.0
1.76400 15.0
1.76900 11.0
1.77400 17.0
1.77900 18.0
1.78400 19.0
1.78900 9.0
1.79400 9.0
1.79900 16.0
1.80400 6.0
1.80900 8.0
1.81400 11.0
1.81900 4.0
1.82400 7.0
1.82900 9.0
1.83400 14.0
1.83900 12.0
1.84400 12.0
1.84900 13.0
1.85400 10.0
1.85900 14.0
1.86400 7.0
1.86900 11.0
1.87400 13.0
1.87900 9.0
1.88400 12.0
1.88900 12.0
1.89400 13.0
1.89900 19.0
1.90400 10.0
1.90900 18.0
1.91400 22.0
1.91900 18.0
1.92400 18.0
1.92900 21.0
1.93400 11.0
1.93900 18.0
1.94400 32.0
1.94900 25.0
1.95400 18.0
1.95900 18.0
1.96400 25.0
1.96900 30.0
1.97400 41.0
1.97900 15.0
1.98400 16.0
1.98900 20.0
1.99400 22.0
1.99900 16.0
2.00400 19.0
2.00900 25.0
2.01400 24.0
2.01900 17.0
2.02400 16.0
2.02900 17.0
2.03400 16.0
2.03900 25.0
2.04400 23.0
2.04900 31.0
2.05400 22.0
2.05900 36.0
2.06400 32.0
2.06900 37.0
2.07400 20.0
2.07900 41.0
2.08400 28.0
2.08900 33.0
2.09400 25.0
2.09900 26.0
2.10400 27.0
2.10900 26.0
2.11400 19.0
2.11900 20.0
2.12400 16.0
2.12900 13.0
2.13400 7.0
2.13900 14.0
2.14400 12.0
2.14900 17.0
2.15400 14.0
2.15900 15.0
2.16400 21.0
2.16900 14.0
2.17400 21.0
2.17900 30.0
2.18400 21.0
2.18900 23.0
2.19400 25.0
