0.00500 389362417664.0
0.01500 430152581120.0
0.02500 320257130496.0
0.03500 185959055360.0
0.04500 92301238272.0
0.05500 45984735232.0
0.06500 39023464448.0
0.07500 42958073856.0
0.08500 48299716608.0
0.09500 53915893760.0
0.10500 59268878336.0
0.11500 65195831296.0
0.12500 71349846016.0
0.13500 76908175360.0
0.14500 82414272512.0
0.15500 87730069504.0
0.16500 92890382336.0
0.17500 98605719552.0
0.18500 103229071360.0
0.19500 108192743424.0
0.20500 113216200704.0
0.21500 118140747776.0
0.22500 123841200128.0
0.23500 128122036224.0
0.24500 132647936000.0
0.25500 136936644608.0
0.26500 141021282304.0
0.27500 146554896384.0
0.28500 150855974912.0
0.29500 156052389888.0
0.30500 160768524288.0
0.31500 164551983104.0
0.32500 168245280768.0
0.33500 172236947456.0
0.34500 175177629696.0
0.35500 178824380416.0
0.36500 182792601600.0
0.37500 187107475456.0
0.38500 191957975040.0
0.39500 197507579904.0
0.40500 201333506048.0
0.41500 203485921280.0
0.42500 207293382656.0
0.43500 212014759936.0
0.44500 215199088640.0
0.45500 216774639616.0
0.46500 219458666496.0
0.47500 222401265664.0
0.48500 226128887808.0
0.49500 228608688128.0
0.50500 228841226240.0
0.51500 231522516992.0
0.52500 232905162752.0
0.53500 235309842432.0
0.54500 237794787328.0
0.55500 238739341312.0
0.56500 240703700992.0
0.57500 241985372160.0
0.58500 242754453504.0
0.59500 242316689408.0
0.60500 242971590656.0
0.61500 242096521216.0
0.62500 240237445120.0
0.63500 237835223040.0
0.64500 235775606784.0
0.65500 229273714688.0
0.66500 219896741888.0
0.67500 207457533952.0
0.68500 190228692992.0
0.69500 168199389184.0
0.70500 143893282816.0
0.71500 120658944000.0
0.72500 101237096448.0
0.73500 87536451584.0
0.74500 76285878272.0
0.75500 67534503936.0
0.76500 60721610752.0
0.77500 54325374976.0
0.78500 49269460992.0
0.79500 44599967744.0
0.80500 40426033152.0
0.81500 37030404096.0
0.82500 34250915840.0
0.83500 31590883328.0
0.84500 29413308416.0
0.85500 27184490496.0
0.86500 25434296320.0
0.87500 23754725376.0
0.88500 22179231744.0
0.89500 20795205632.0
0.90500 19576608768.0
0.91500 18322126848.0
0.92500 17247463424.0
0.93500 16356464640.0
0.94500 15516357632.0
0.95500 14604815360.0
0.96500 13866812416.0
0.97500 13116447744.0
0.98500 12489709568.0
0.99500 11841197056.0
1.00500 11258232832.0
1.01500 10781400064.0
1.02500 10321238016.0
1.03500 9835426816.0
1.04500 9425848320.0
1.05500 8988271616.0
1.06500 8576832512.0
1.07500 8155562496.0
1.08500 7803699712.0
1.09500 7495708160.0
1.10500 7212329984.0
1.11500 6846160896.0
1.12500 6490620416.0
1.13500 6224653824.0
1.14500 5963162112.0
1.15500 5778588160.0
1.16500 5594363392.0
1.17500 5410530816.0
1.18500 5361905152.0
1.19500 5023593984.0
1.20500 4820140032.0
1.21500 4692317184.0
1.22500 4542411776.0
1.23500 4407162880.0
1.24500 4281060352.0
1.25500 4148342528.0
1.26500 4018016256.0
1.27500 3875061760.0
1.28500 3718821376.0
1.29500 3604074240.0
1.30500 3481090304.0
1.31500 3380649984.0
1.32500 3297327360.0
1.33500 3192272128.0
1.34500 3091104512.0
1.35500 3003278848.0
1.36500 2905243904.0
1.37500 2842465280.0
1.38500 2741171968.0
1.39500 2652073472.0
1.40500 2590385664.0
1.41500 2522376448.0
1.42500 2446885632.0
1.43500 2395350784.0
1.44500 2315328512.0
1.45500 2258717440.0
1.46500 2197085440.0
1.47500 2159927296.0
1.48500 2099148544.0
1.49500 2036034176.0
1.50500 2008623616.0
1.51500 1963577856.0
1.52500 1915777152.0
1.53500 1873976064.0
1.54500 1830258944.0
1.55500 1789534592.0
1.56500 1740712960.0
1.57500 1705414784.0
1.58500 1667347584.0
1.59500 1632147456.0
1.60500 1595324928.0
1.61500 1583339776.0
1.62500 1559593216.0
1.63500 1519680000.0
1.64500 1497387904.0
1.65500 1491010816.0
1.66500 1453125376.0
1.67500 1441070336.0
1.68500 1425644928.0
1.69500 1405142912.0
1.70500 1379885952.0
1.71500 1363453568.0
1.72500 1335875200.0
1.73500 1333106176.0
1.74500 1324840960.0
1.75500 1328169472.0
1.76500 1321037056.0
1.77500 1313834752.0
1.78500 1306492672.0
1.79500 1306059136.0
1.80500 1310716160.0
1.81500 1299947648.0
1.82500 1304912384.0
1.83500 1314659968.0
1.84500 1327400320.0
1.85500 1363229824.0
1.86500 1405031040.0
1.87500 1425253248.0
1.88500 1467501952.0
1.89500 1509373056.0
1.90500 1569648384.0
1.91500 1651544576.0
1.92500 1749998976.0
1.93500 1876325504.0
1.94500 2037055104.0
1.95500 2287582464.0
1.96500 2602132992.0
1.97500 3062281472.0
1.98500 3744441856.0
1.99500 4806462464.0
2.00500 6985927168.0
2.01500 11520143360.0
2.02500 20512989184.0
2.03500 35589361664.0
2.04500 48820699136.0
2.05500 49119920128.0
2.06500 35654549504.0
2.07500 22281517056.0
2.08500 14775879680.0
2.09500 11210991616.0
2.10500 8663581696.0
2.11500 6711737344.0
2.12500 5219453952.0
2.13500 4181878528.0
2.14500 3427192064.0
2.15500 2830689792.0
2.16500 2369436672.0
2.17500 1964864512.0
2.18500 1626721152.0
2.19500 1408177664.0
2.20500 1208653568.0
2.21500 1059000128.0
2.22500 914842752.0
2.23500 807396032.0
2.24500 720381312.0
2.25500 650428352.0
2.26500 590796352.0
2.27500 534199040.0
2.28500 484636192.0
2.29500 453086016.0
2.30500 427591360.0
2.31500 398320768.0
2.32500 375790944.0
2.33500 351596896.0
2.34500 336563008.0
2.35500 320578144.0
2.36500 301810272.0
2.37500 284440928.0
2.38500 266847792.0
2.39500 259225952.0
2.40500 252079632.0
2.41500 243800512.0
2.42500 234948000.0
2.43500 219075024.0
2.44500 213201328.0
2.45500 202768512.0
2.46500 197426240.0
2.47500 188629680.0
2.48500 179245744.0
2.49500 174686640.0
2.50500 169889776.0
2.51500 163582544.0
2.52500 157037568.0
2.53500 149653488.0
2.54500 144744752.0
2.55500 143514064.0
2.56500 138395552.0
2.57500 134339904.0
2.58500 130004560.0
2.59500 123641384.0
2.60500 121221984.0
2.61500 117865584.0
2.62500 116187376.0
2.63500 113278496.0
2.64500 108285856.0
2.65500 107097128.0
2.66500 104733664.0
2.67500 99587184.0
2.68500 99027784.0
2.69500 95405672.0
2.70500 94258896.0
2.71500 89224304.0
2.72500 87671968.0
2.73500 87014672.0
2.74500 83616312.0
2.75500 79742472.0
2.76500 79938256.0
2.77500 78343968.0
2.78500 75784712.0
2.79500 74176440.0
2.80500 73658992.0
2.81500 71463352.0
2.82500 71631168.0
2.83500 65687544.0
2.84500 63296112.0
2.85500 62415056.0
2.86500 59687980.0
2.87500 57883916.0
2.88500 59701964.0
2.89500 59925724.0
2.90500 58443316.0
2.91500 55366616.0
2.92500 51003296.0
2.93500 51269008.0
2.94500 52080140.0
2.95500 46416216.0
2.96500 47758776.0
2.97500 46276364.0
2.98500 42891996.0
2.99500 44500272.0
3.00500 43087784.0
3.01500 41549436.0
3.02500 40584472.0
3.03500 39074088.0
3.04500 39297848.0
3.05500 39955144.0
3.06500 39577552.0
3.07500 39185968.0
3.08500 38081156.0
3.09500 35437992.0
3.10500 35871524.0
3.11500 35396036.0
3.12500 34025504.0
3.13500 32501140.0
3.14500 33200390.0
3.15500 32501140.0
3.16500 32333320.0
3.17500 30417376.0
3.18500 31270460.0
3.19500 30249556.0
3.20500 28011956.0
3.21500 28599324.0
3.22500 28473460.0
3.23500 26347740.0
3.24500 26082024.0
3.25500 29018876.0
3.26500 27900076.0
3.27500 27396616.0
3.28500 28347596.0
3.29500 27242780.0
3.30500 25466684.0
3.31500 24319916.0
3.32500 24823376.0
3.33500 23215100.0
3.34500 25103076.0
3.35500 23900364.0
3.36500 23382920.0
3.37500 23019310.0
3.38500 19425164.0
3.39500 21229230.0
3.40500 20991484.0
3.41500 22166224.0
3.42500 21257200.0
3.43500 19355240.0
3.44500 19173436.0
3.45500 19662910.0
3.46500 18334336.0
3.47500 18614036.0
3.48500 18530124.0
3.49500 18921704.0
3.50500 17663056.0
3.51500 18446216.0
3.52500 17355384.0
3.53500 16879896.0
3.54500 15621245.0
3.55500 14796130.0
3.56500 14894025.0
3.57500 15145755.0
3.58500 16390420.0
3.59500 15299590.0
3.60500 15886960.0
3.61500 15131770.0
3.62500 14810115.0
3.63500 14642295.0
3.64500 14572370.0
3.65500 13565450.0
3.66500 14306655.0
3.67500 13971015.0
3.68500 14222745.0
3.69500 15313575.0
3.70500 14810115.0
3.71500 14124850.0
3.72500 13131915.0
3.73500 12950110.0
3.74500 12530560.0
3.75500 12782290.0
3.76500 13187855.0
3.77500 12376725.0
3.78500 12726350.0
3.79500 12348755.0
3.80500 11971160.0
3.81500 10698525.0
3.82500 11439730.0
3.83500 11104090.0
3.84500 10936270.0
3.85500 11229955.0
3.86500 12446650.0
3.87500 14572370.0
3.88500 22096300.0
3.89500 37479800.0
3.90500 66330856.0
3.91500 94692432.0
3.92500 104132312.0
3.93500 89979488.0
3.94500 68750256.0
3.95500 55436540.0
3.96500 47325240.0
3.97500 43381472.0
3.98500 39074088.0
3.99500 34291220.0
4.00500 31522190.0
4.01500 28767144.0
4.02500 25103076.0
4.03500 22851490.0
4.04500 21844570.0
4.05500 19788776.0
4.06500 18264410.0
4.07500 17397340.0
4.08500 17928770.0
4.09500 16726060.0
4.10500 16851924.0
4.11500 15481395.0
4.12500 15579290.0
4.13500 14949965.0
4.14500 14348610.0
4.15500 13439585.0
4.16500 13075975.0
4.17500 11845295.0
4.18500 11901235.0
4.19500 11929205.0
4.20500 11076120.0
4.21500 12166950.0
4.22500 10139125.0
4.23500 9831455.0
4.24500 9691605.0
4.25500 10041230.0
4.26500 9579725.0
4.27500 9355965.0
4.28500 9481830.0
4.29500 10530705.0
4.30500 7831600.0
4.31500 8321075.0
4.32500 8796565.0
4.33500 8335060.0
4.34500 8642730.0
4.35500 7943480.0
4.36500 8139270.0
4.37500 7943480.0
4.38500 7901525.0
4.39500 8684685.0
4.40500 7454005.0
4.41500 9146190.0
4.42500 8488895.0
4.43500 8111300.0
4.44500 8698670.0
4.45500 9327995.0
4.46500 8866490.0
4.47500 10502735.0
4.48500 10027245.0
4.49500 9817470.0
4.50500 8167240.0
4.51500 9859425.0
4.52500 9076265.0
4.53500 9272055.0
4.54500 8894460.0
4.55500 7454005.0
4.56500 7454005.0
4.57500 7509945.0
4.58500 8125285.0
4.59500 7412050.0
4.60500 8978370.0
4.61500 8488895.0
4.62500 8377015.0
4.63500 8181225.0
4.64500 8880475.0
4.65500 7300170.0
4.66500 7761675.0
4.67500 7523930.0
4.68500 8041375.0
4.69500 7048440.0
4.70500 6517010.0
4.71500 5943625.0
4.72500 5621970.0
4.73500 7915510.0
4.74500 6754755.0
4.75500 5915655.0
4.76500 5859715.0
4.77500 5160465.0
4.78500 5468135.0
4.79500 5440165.0
4.80500 5635955.0
4.81500 5677910.0
4.82500 5845730.0
4.83500 5552045.0
4.84500 5580015.0
4.85500 6265280.0
4.86500 7272200.0
4.87500 5635955.0
4.88500 5747835.0
4.89500 4349335.0
4.90500 4321365.0
4.91500 5635955.0
4.92500 5677910.0
4.93500 5482120.0
4.94500 4824825.0
4.95500 5076555.0
4.96500 5076555.0
4.97500 5566030.0
4.98500 5733850.0
4.99500 6265280.0
5.00500 6335205.0
5.01500 6419115.0
5.02500 5160465.0
5.03500 6265280.0
5.04500 4824825.0
5.05500 6223325.0
5.06500 5817760.0
5.07500 4824825.0
5.08500 4712945.0
5.09500 3230535.0
5.10500 3314445.0
5.11500 2713090.0
5.12500 3258505.0
5.13500 3873845.0
5.14500 3524220.0
5.15500 3803920.0
5.16500 3594145.0
5.17500 3482265.0
5.18500 3272490.0
5.19500 3118655.0
5.20500 2922865.0
5.21500 2908880.0
5.22500 2293540.0
5.23500 2447375.0
5.24500 2922865.0
5.25500 2769030.0
5.26500 2713090.0
5.27500 3286475.0
5.28500 3132640.0
5.29500 3062715.0
5.30500 3398355.0
5.31500 3370385.0
5.32500 3412340.0
5.33500 3496250.0
5.34500 3426325.0
5.35500 4139560.0
5.36500 4195500.0
5.37500 5314300.0
5.38500 3566175.0
5.39500 4125575.0
5.40500 4069635.0
5.41500 4111590.0
5.42500 3747980.0
5.43500 3230535.0
5.44500 3118655.0
5.45500 2671135.0
5.46500 3272490.0
5.47500 3733995.0
5.48500 3538205.0
5.49500 4209485.0
5.50500 3076700.0
5.51500 4265425.0
5.52500 4419260.0
5.53500 3580160.0
5.54500 2866925.0
5.55500 3300460.0
5.56500 2363465.0
5.57500 2363465.0
5.58500 2055795.0
5.59500 2069780.0
5.60500 1790080.0
5.61500 1552335.0
5.62500 1957900.0
5.63500 1664215.0
5.64500 2013840.0
5.65500 2685120.0
5.66500 2293540.0
5.67500 2153690.0
5.68500 2027825.0
5.69500 2223615.0
5.70500 2139705.0
5.71500 1943915.0
5.72500 2041810.0
5.73500 1790080.0
5.74500 1776095.0
5.75500 1818050.0
5.76500 2251585.0
5.77500 2797000.0
5.78500 5104525.0
5.79500 7831600.0
5.80500 11929205.0
5.81500 16208615.0
5.82500 16544255.0
5.83500 15551320.0
5.84500 13285750.0
5.85500 10712510.0
5.86500 9649650.0
5.87500 7342125.0
5.88500 6503025.0
5.89500 6069490.0
5.90500 5845730.0
5.91500 6111445.0
5.92500 6530995.0
5.93500 5663925.0
5.94500 5971595.0
5.95500 4880765.0
5.96500 6307235.0
5.97500 5384225.0
5.98500 4908735.0
5.99500 3915800.0
6.00500 4069635.0
6.01500 5412195.0
6.02500 5789790.0
6.03500 5901670.0
6.04500 5426180.0
6.05500 6111445.0
6.06500 6083475.0
6.07500 4055650.0
6.08500 2601210.0
6.09500 2489330.0
6.10500 2992790.0
6.11500 2838955.0
6.12500 3104670.0
6.13500 3160610.0
6.14500 3440310.0
6.15500 3496250.0
6.16500 2587225.0
6.17500 2265570.0
6.18500 2027825.0
6.19500 1580305.0
6.20500 1790080.0
6.21500 1608275.0
6.22500 1846020.0
6.23500 2125720.0
6.24500 2433390.0
6.25500 2992790.0
6.26500 2615195.0
6.27500 2797000.0
6.28500 2251585.0
6.29500 1692185.0
6.30500 1608275.0
6.31500 1832035.0
6.32500 1454440.0
6.33500 1524365.0
6.34500 1370530.0
6.35500 1370530.0
6.36500 1454440.0
6.37500 1985870.0
6.38500 1818050.0
6.39500 2069780.0
6.40500 1776095.0
6.41500 1692185.0
6.42500 1832035.0
6.43500 1720155.0
6.44500 1762110.0
6.45500 2027825.0
6.46500 1943915.0
6.47500 1804065.0
6.48500 1873990.0
6.49500 2153690.0
6.50500 2307525.0
6.51500 2349480.0
6.52500 2083765.0
6.53500 2041810.0
6.54500 2209630.0
6.55500 1818050.0
6.56500 1692185.0
6.57500 1566320.0
6.58500 1342560.0
6.59500 1230680.0
6.60500 1706170.0
6.61500 1608275.0
6.62500 1300605.0
6.63500 1342560.0
6.64500 1440455.0
6.65500 1314590.0
6.66500 1426470.0
6.67500 1370530.0
6.68500 1244665.0
6.69500 1804065.0
6.70500 2055795.0
6.71500 2293540.0
6.72500 1915945.0
6.73500 1678200.0
6.74500 1650230.0
6.75500 1286620.0
6.76500 1566320.0
6.77500 1776095.0
6.78500 1244665.0
6.79500 853085.0
6.80500 1370530.0
6.81500 1258650.0
6.82500 1720155.0
6.83500 1566320.0
6.84500 1230680.0
6.85500 1901960.0
6.86500 2195645.0
6.87500 2615195.0
6.88500 2405420.0
6.89500 1496395.0
6.90500 1804065.0
6.91500 1860005.0
6.92500 2013840.0
6.93500 992935.0
6.94500 1034890.0
6.95500 1104815.0
6.96500 1300605.0
6.97500 1608275.0
6.98500 1804065.0
6.99500 1734140.0
7.00500 1650230.0
7.01500 1510380.0
7.02500 1622260.0
7.03500 1048875.0
7.04500 964965.0
7.05500 923010.0
7.06500 1020905.0
7.07500 1580305.0
7.08500 1188725.0
7.09500 1048875.0
7.10500 936995.0
7.11500 1188725.0
7.12500 1062860.0
7.13500 1636245.0
7.14500 1566320.0
7.15500 2027825.0
7.16500 1887975.0
7.17500 2265570.0
7.18500 1873990.0
7.19500 1818050.0
7.20500 1832035.0
7.21500 1846020.0
7.22500 2349480.0
7.23500 1482410.0
7.24500 1356545.0
7.25500 1538350.0
7.26500 1300605.0
7.27500 1216695.0
7.28500 1006920.0
7.29500 1174740.0
7.30500 1356545.0
7.31500 1594290.0
7.32500 1328575.0
7.33500 1524365.0
7.34500 1524365.0
7.35500 1776095.0
7.36500 1762110.0
7.37500 1454440.0
7.38500 1496395.0
7.39500 1510380.0
7.40500 964965.0
7.41500 1006920.0
7.42500 1076845.0
7.43500 923010.0
7.44500 909025.0
7.45500 978950.0
7.46500 1146770.0
7.47500 1328575.0
7.48500 1943915.0
7.49500 1929930.0
7.50500 1901960.0
7.51500 2111735.0
7.52500 1873990.0
7.53500 2433390.0
7.54500 2209630.0
7.55500 2894895.0
7.56500 3146625.0
7.57500 2950835.0
7.58500 2950835.0
7.59500 1790080.0
7.60500 2013840.0
7.61500 1286620.0
7.62500 1594290.0
7.63500 1650230.0
7.64500 2027825.0
7.65500 2069780.0
7.66500 1790080.0
7.67500 1790080.0
7.68500 1748125.0
7.69500 1860005.0
7.70500 1860005.0
7.71500 1776095.0
7.72500 2209630.0
7.73500 1929930.0
7.74500 2251585.0
7.75500 1776095.0
7.76500 1832035.0
7.77500 1370530.0
7.78500 1426470.0
7.79500 2125720.0
7.80500 2936850.0
7.81500 1832035.0
7.82500 1468425.0
7.83500 1188725.0
7.84500 1943915.0
7.85500 1622260.0
7.86500 1985870.0
7.87500 2587225.0
7.88500 2713090.0
7.89500 2727075.0
7.90500 2838955.0
7.91500 2321510.0
7.92500 1957900.0
7.93500 2013840.0
7.94500 2223615.0
7.95500 1678200.0
7.96500 1622260.0
7.97500 2153690.0
7.98500 2055795.0
7.99500 2489330.0
8.00500 2279555.0
8.01500 2629180.0
8.02500 2880910.0
8.03500 2559255.0
8.04500 2615195.0
8.05500 2391435.0
8.06500 1971885.0
8.07500 1846020.0
8.08500 1943915.0
8.09500 1846020.0
8.10500 1608275.0
8.11500 1929930.0
8.12500 1971885.0
8.13500 1943915.0
8.14500 1776095.0
8.15500 2111735.0
8.16500 1426470.0
8.17500 2013840.0
8.18500 2195645.0
8.19500 2503315.0
8.20500 2363465.0
8.21500 2615195.0
8.22500 2601210.0
8.23500 2041810.0
8.24500 1860005.0
8.25500 2013840.0
8.26500 1818050.0
8.27500 2964820.0
8.28500 3524220.0
8.29500 3258505.0
8.30500 3440310.0
8.31500 2852940.0
8.32500 2237600.0
8.33500 2223615.0
8.34500 1915945.0
8.35500 2209630.0
8.36500 1957900.0
8.37500 2838955.0
8.38500 2629180.0
8.39500 2055795.0
8.40500 2559255.0
8.41500 2223615.0
8.42500 2069780.0
8.43500 1915945.0
8.44500 2237600.0
8.45500 2237600.0
8.46500 2615195.0
8.47500 1999855.0
8.48500 2335495.0
8.49500 2083765.0
8.50500 2657150.0
8.51500 2559255.0
8.52500 2153690.0
8.53500 1971885.0
8.54500 1636245.0
8.55500 1846020.0
8.56500 1776095.0
8.57500 1748125.0
8.58500 1580305.0
8.59500 1664215.0
8.60500 1468425.0
8.61500 1804065.0
8.62500 1873990.0
8.63500 1734140.0
8.64500 1832035.0
8.65500 2391435.0
8.66500 1692185.0
8.67500 1678200.0
8.68500 1328575.0
8.69500 1412485.0
8.70500 1664215.0
8.71500 1734140.0
8.72500 2279555.0
8.73500 2377450.0
8.74500 1804065.0
8.75500 1776095.0
8.76500 1748125.0
8.77500 2377450.0
8.78500 2601210.0
8.79500 2265570.0
8.80500 2894895.0
8.81500 2321510.0
8.82500 2489330.0
8.83500 3090685.0
8.84500 2419405.0
8.85500 1552335.0
8.86500 2307525.0
8.87500 2083765.0
8.88500 2489330.0
8.89500 2027825.0
8.90500 2251585.0
8.91500 2321510.0
8.92500 2125720.0
8.93500 1342560.0
8.94500 1258650.0
8.95500 1943915.0
8.96500 1818050.0
8.97500 2083765.0
8.98500 1985870.0
8.99500 1524365.0
9.00500 1594290.0
9.01500 2125720.0
9.02500 2321510.0
9.03500 2573240.0
9.04500 1496395.0
9.05500 2097750.0
9.06500 2405420.0
9.07500 2237600.0
9.08500 2153690.0
9.09500 2657150.0
9.10500 2391435.0
9.11500 1832035.0
9.12500 1762110.0
9.13500 1664215.0
9.14500 1104815.0
9.15500 1650230.0
9.16500 1496395.0
9.17500 1608275.0
9.18500 1342560.0
9.19500 1790080.0
9.20500 1804065.0
9.21500 1552335.0
9.22500 1887975.0
9.23500 1650230.0
9.24500 2111735.0
9.25500 1622260.0
9.26500 1524365.0
9.27500 1594290.0
9.28500 1146770.0
9.29500 1510380.0
9.30500 1160755.0
9.31500 1272635.0
9.32500 1328575.0
9.33500 1356545.0
9.34500 1426470.0
9.35500 2391435.0
9.36500 1929930.0
9.37500 1398500.0
9.38500 1468425.0
9.39500 1608275.0
9.40500 1720155.0
9.41500 1734140.0
9.42500 1720155.0
9.43500 1608275.0
9.44500 1538350.0
9.45500 1762110.0
9.46500 1622260.0
9.47500 1356545.0
9.48500 1524365.0
9.49500 1398500.0
9.50500 1860005.0
9.51500 1846020.0
9.52500 1524365.0
9.53500 1762110.0
9.54500 1818050.0
9.55500 2237600.0
9.56500 1873990.0
9.57500 1608275.0
9.58500 1915945.0
9.59500 3622115.0
9.60500 3608130.0
9.61500 2349480.0
9.62500 1692185.0
9.63500 1622260.0
9.64500 1804065.0
9.65500 1468425.0
9.66500 1356545.0
9.67500 1412485.0
9.68500 1342560.0
9.69500 1580305.0
9.70500 1692185.0
9.71500 1328575.0
9.72500 1776095.0
9.73500 1496395.0
9.74500 1188725.0
9.75500 1300605.0
9.76500 1272635.0
9.77500 1174740.0
9.78500 1188725.0
9.79500 1314590.0
9.80500 1706170.0
9.81500 1650230.0
9.82500 1202710.0
9.83500 1580305.0
9.84500 2013840.0
9.85500 2055795.0
9.86500 1636245.0
9.87500 1901960.0
9.88500 1566320.0
9.89500 2013840.0
9.90500 1901960.0
9.91500 1412485.0
9.92500 1678200.0
9.93500 1804065.0
9.94500 1160755.0
9.95500 1678200.0
9.96500 1272635.0
9.97500 1174740.0
9.98500 1006920.0
9.99500 1090830.0
