0.00500 69747464.0
0.01500 80146640.0
0.02500 69531568.0
0.03500 49999420.0
0.04500 29977254.0
0.05500 17659814.0
0.06500 12823997.0
0.07500 12765381.0
0.08500 14023310.0
0.09500 15402145.0
0.10500 17148208.0
0.11500 18612254.0
0.12500 19913224.0
0.13500 21494628.0
0.14500 22535716.0
0.15500 23979896.0
0.16500 25473228.0
0.17500 26478484.0
0.18500 27844088.0
0.19500 28829464.0
0.20500 30292908.0
0.21500 31672928.0
0.22500 32693392.0
0.23500 34105324.0
0.24500 34974416.0
0.25500 35844228.0
0.26500 37235408.0
0.27500 38157016.0
0.28500 39532744.0
0.29500 40045428.0
0.30500 40721712.0
0.31500 41848748.0
0.32500 42542892.0
0.33500 43650376.0
0.34500 44667520.0
0.35500 45213960.0
0.36500 46636160.0
0.37500 47046044.0
0.38500 47866768.0
0.39500 48717352.0
0.40500 49090568.0
0.41500 50067184.0
0.42500 50248552.0
0.43500 50845024.0
0.44500 51542904.0
0.45500 51945568.0
0.46500 52867944.0
0.47500 52798392.0
0.48500 52958384.0
0.49500 53712112.0
0.50500 53617256.0
0.51500 53973164.0
0.52500 54169156.0
0.53500 54196104.0
0.54500 54894248.0
0.55500 54534064.0
0.56500 54726376.0
0.57500 54587688.0
0.58500 54013728.0
0.59500 54374516.0
0.60500 54095184.0
0.61500 53432272.0
0.62500 53140008.0
0.63500 52324652.0
0.64500 51593228.0
0.65500 50293684.0
0.66500 48698828.0
0.67500 47196588.0
0.68500 44878500.0
0.69500 42591852.0
0.70500 39767352.0
0.71500 36399056.0
0.72500 33236860.0
0.73500 29780440.0
0.74500 26828782.0
0.75500 24348064.0
0.76500 21646768.0
0.77500 19734216.0
0.78500 17805710.0
0.79500 16190830.0
0.80500 14900838.0
0.81500 13544713.0
0.82500 12478847.0
0.83500 11564386.0
0.84500 10672594.0
0.85500 9969278.0
0.86500 9202978.0
0.87500 8525829.0
0.88500 7985062.0
0.89500 7405326.0
0.90500 6981577.0
0.91500 6496941.0
0.92500 6051583.0
0.93500 5736407.0
0.94500 5369213.0
0.95500 5104044.0
0.96500 4821380.0
0.97500 4526352.0
0.98500 4304601.0
0.99500 4037958.0
1.00500 3823886.0
1.01500 3592956.0
1.02500 3416141.0
1.03500 3254655.0
1.04500 3068244.0
1.05500 2907878.0
1.06500 2769815.0
1.07500 2630433.0
1.08500 2513946.0
1.09500 2388542.0
1.10500 2280078.0
1.11500 2191907.0
1.12500 2082356.0
1.13500 1998377.0
1.14500 1918848.0
1.15500 1834229.0
1.16500 1751882.0
1.17500 1665370.0
1.18500 1594229.0
1.19500 1528609.0
1.20500 1459229.0
1.21500 1403816.0
1.22500 1346614.0
1.23500 1291469.0
1.24500 1238244.0
1.25500 1185643.0
1.26500 1143920.0
1.27500 1107664.0
1.28500 1055525.0
1.29500 1020263.0
1.30500 973105.0
1.31500 938020.0
1.32500 908438.0
1.33500 870565.0
1.34500 840653.0
1.35500 813504.0
1.36500 783786.0
1.37500 757672.0
1.38500 731154.0
1.39500 713447.0
1.40500 686110.0
1.41500 662926.0
1.42500 646571.0
1.43500 625117.0
1.44500 599877.0
1.45500 577811.0
1.46500 566141.0
1.47500 549420.0
1.48500 527830.0
1.49500 513517.0
1.50500 499575.0
1.51500 486239.0
1.52500 468834.0
1.53500 462235.0
1.54500 451086.0
1.55500 433783.0
1.56500 420283.0
1.57500 413137.0
1.58500 403470.0
1.59500 388915.0
1.60500 379900.0
1.61500 374738.0
1.62500 364534.0
1.63500 352150.0
1.64500 347222.0
1.65500 340849.0
1.66500 331473.0
1.67500 322347.0
1.68500 320235.0
1.69500 315476.0
1.70500 306056.0
1.71500 300615.0
1.72500 301531.0
1.73500 301146.0
1.74500 290190.0
1.75500 284998.0
1.76500 287701.0
1.77500 286182.0
1.78500 278378.0
1.79500 278094.0
1.80500 281478.0
1.81500 279642.0
1.82500 269289.0
1.83500 271104.0
1.84500 275931.0
1.85500 275491.0
1.86500 271771.0
1.87500 274605.0
1.88500 280019.0
1.89500 278869.0
1.90500 278585.0
1.91500 287144.0
1.92500 300285.0
1.93500 303724.0
1.94500 307920.0
1.95500 325135.0
1.96500 341062.0
1.97500 348368.0
1.98500 361971.0
1.99500 392734.0
2.00500 420172.0
2.01500 434223.0
2.02500 461474.0
2.03500 505736.0
2.04500 542562.0
2.05500 557430.0
2.06500 576293.0
2.07500 616495.0
2.08500 637187.0
2.09500 622863.0
2.10500 641178.0
2.11500 742083.0
2.12500 922615.0
2.13500 1165202.0
2.14500 1514525.0
2.15500 2063308.0
2.16500 2737895.0
2.17500 3818212.0
2.18500 5805184.0
2.19500 8745079.0
2.20500 11905053.0
2.21500 13570497.0
2.22500 13147261.0
2.23500 10616992.0
2.24500 7266443.0
2.25500 4269897.0
2.26500 2539452.0
2.27500 1779867.0
2.28500 1374605.0
2.29500 1062801.0
2.30500 836403.0
2.31500 733734.0
2.32500 662290.0
2.33500 540484.0
2.34500 412268.0
2.35500 321174.0
2.36500 264833.0
2.37500 218863.0
2.38500 179390.0
2.39500 156671.0
2.40500 144348.0
2.41500 131345.0
2.42500 116355.0
2.43500 108929.0
2.44500 104867.0
2.45500 95813.0
2.46500 85650.0
2.47500 81322.0
2.48500 78460.0
2.49500 72916.0
2.50500 66631.0
2.51500 63972.0
2.52500 62750.0
2.53500 59077.0
2.54500 54828.0
2.55500 51416.0
2.56500 50225.0
2.57500 48050.0
2.58500 44874.0
2.59500 42689.0
2.60500 42691.0
2.61500 42076.0
2.62500 38958.0
2.63500 37047.0
2.64500 36165.0
2.65500 35926.0
2.66500 33848.0
2.67500 31955.0
2.68500 31436.0
2.69500 31132.0
2.70500 29442.0
2.71500 27756.0
2.72500 27320.0
2.73500 27372.0
2.74500 25966.0
2.75500 24980.0
2.76500 24632.0
2.77500 24216.0
2.78500 23203.0
2.79500 22259.0
2.80500 21696.0
2.81500 21871.0
2.82500 21139.0
2.83500 20197.0
2.84500 19881.0
2.85500 20072.0
2.86500 19282.0
2.87500 18431.0
2.88500 18199.0
2.89500 18496.0
2.90500 18482.0
2.91500 17539.0
2.92500 16873.0
2.93500 17532.0
2.94500 17264.0
2.95500 16708.0
2.96500 16094.0
2.97500 16247.0
2.98500 16163.0
2.99500 15478.0
3.00500 15359.0
3.01500 15268.0
3.02500 15103.0
3.03500 14795.0
3.04500 14068.0
3.05500 14269.0
3.06500 14435.0
3.07500 14083.0
3.08500 13517.0
3.09500 13570.0
3.10500 13874.0
3.11500 13283.0
3.12500 12757.0
3.13500 12681.0
3.14500 12914.0
3.15500 12269.0
3.16500 12034.0
3.17500 11861.0
3.18500 12086.0
3.19500 12137.0
3.20500 11604.0
3.21500 11135.0
3.22500 11409.0
3.23500 11267.0
3.24500 10980.0
3.25500 10849.0
3.26500 11154.0
3.27500 11211.0
3.28500 10617.0
3.29500 10093.0
3.30500 10301.0
3.31500 10229.0
3.32500 9858.0
3.33500 9596.0
3.34500 9962.0
3.35500 10164.0
3.36500 9421.0
3.37500 9423.0
3.38500 9548.0
3.39500 9646.0
3.40500 9198.0
3.41500 8928.0
3.42500 8849.0
3.43500 9050.0
3.44500 8640.0
3.45500 8277.0
3.46500 8218.0
3.47500 8572.0
3.48500 8256.0
3.49500 7761.0
3.50500 7883.0
3.51500 7874.0
3.52500 7656.0
3.53500 7254.0
3.54500 7371.0
3.55500 7722.0
3.56500 7738.0
3.57500 7166.0
3.58500 6848.0
3.59500 6938.0
3.60500 7025.0
3.61500 6918.0
3.62500 6716.0
3.63500 6684.0
3.64500 6698.0
3.65500 6500.0
3.66500 6429.0
3.67500 6451.0
3.68500 6545.0
3.69500 6165.0
3.70500 5963.0
3.71500 6052.0
3.72500 5989.0
3.73500 5964.0
3.74500 5633.0
3.75500 5605.0
3.76500 5541.0
3.77500 5372.0
3.78500 5083.0
3.79500 5127.0
3.80500 5387.0
3.81500 5456.0
3.82500 5245.0
3.83500 4994.0
3.84500 5260.0
3.85500 4892.0
3.86500 4911.0
3.87500 4641.0
3.88500 4628.0
3.89500 4674.0
3.90500 4422.0
3.91500 4249.0
3.92500 4213.0
3.93500 4334.0
3.94500 4110.0
3.95500 4047.0
3.96500 4308.0
3.97500 4230.0
3.98500 4279.0
3.99500 3973.0
4.00500 4034.0
4.01500 4202.0
4.02500 4011.0
4.03500 3716.0
4.04500 3745.0
4.05500 3691.0
4.06500 3755.0
4.07500 3371.0
4.08500 3085.0
4.09500 2974.0
4.10500 2882.0
4.11500 2777.0
4.12500 2420.0
4.13500 2254.0
4.14500 2705.0
4.15500 3619.0
4.16500 4706.0
4.17500 6242.0
4.18500 7843.0
4.19500 9884.0
4.20500 12291.0
4.21500 18096.0
4.22500 31761.0
4.23500 60933.0
4.24500 105115.0
4.25500 153938.0
4.26500 188384.0
4.27500 186614.0
4.28500 150676.0
4.29500 98658.0
4.30500 55446.0
4.31500 31773.0
4.32500 25134.0
4.33500 21947.0
4.34500 17908.0
4.35500 14851.0
4.36500 15169.0
4.37500 16339.0
4.38500 15170.0
4.39500 11578.0
4.40500 9094.0
4.41500 8114.0
4.42500 7312.0
4.43500 6531.0
4.44500 5794.0
4.45500 5727.0
4.46500 5816.0
4.47500 5073.0
4.48500 4640.0
4.49500 4669.0
4.50500 4646.0
4.51500 4379.0
4.52500 4017.0
4.53500 4073.0
4.54500 4151.0
4.55500 3988.0
4.56500 3603.0
4.57500 3706.0
4.58500 3980.0
4.59500 3894.0
4.60500 3426.0
4.61500 3361.0
4.62500 3434.0
4.63500 3528.0
4.64500 3018.0
4.65500 2981.0
4.66500 3104.0
4.67500 3243.0
4.68500 2943.0
4.69500 2637.0
4.70500 2731.0
4.71500 2955.0
4.72500 2684.0
4.73500 2614.0
4.74500 2438.0
4.75500 2613.0
4.76500 2455.0
4.77500 2247.0
4.78500 2196.0
4.79500 2273.0
4.80500 2261.0
4.81500 2008.0
4.82500 1995.0
4.83500 2058.0
4.84500 2056.0
4.85500 1902.0
4.86500 1960.0
4.87500 2084.0
4.88500 2087.0
4.89500 1832.0
4.90500 1785.0
4.91500 1908.0
4.92500 1958.0
4.93500 1783.0
4.94500 1673.0
4.95500 1713.0
4.96500 1659.0
4.97500 1552.0
4.98500 1589.0
4.99500 1674.0
5.00500 1722.0
5.01500 1604.0
5.02500 1437.0
5.03500 1451.0
5.04500 1442.0
5.05500 1432.0
5.06500 1398.0
5.07500 1342.0
5.08500 1463.0
5.09500 1444.0
5.10500 1346.0
5.11500 1318.0
5.12500 1299.0
5.13500 1283.0
5.14500 1174.0
5.15500 1240.0
5.16500 1305.0
5.17500 1296.0
5.18500 1240.0
5.19500 1220.0
5.20500 1215.0
5.21500 1202.0
5.22500 1163.0
5.23500 1049.0
5.24500 1097.0
5.25500 1115.0
5.26500 1079.0
5.27500 1083.0
5.28500 1048.0
5.29500 1113.0
5.30500 1071.0
5.31500 933.0
5.32500 946.0
5.33500 1021.0
5.34500 1070.0
5.35500 915.0
5.36500 865.0
5.37500 944.0
5.38500 946.0
5.39500 915.0
5.40500 810.0
5.41500 827.0
5.42500 876.0
5.43500 841.0
5.44500 757.0
5.45500 806.0
5.46500 845.0
5.47500 850.0
5.48500 757.0
5.49500 811.0
5.50500 847.0
5.51500 819.0
5.52500 740.0
5.53500 769.0
5.54500 798.0
5.55500 814.0
5.56500 754.0
5.57500 696.0
5.58500 694.0
5.59500 717.0
5.60500 742.0
5.61500 657.0
5.62500 656.0
5.63500 728.0
5.64500 682.0
5.65500 631.0
5.66500 636.0
5.67500 650.0
5.68500 629.0
5.69500 601.0
5.70500 623.0
5.71500 636.0
5.72500 626.0
5.73500 612.0
5.74500 596.0
5.75500 652.0
5.76500 568.0
5.77500 581.0
5.78500 582.0
5.79500 540.0
5.80500 563.0
5.81500 543.0
5.82500 534.0
5.83500 536.0
5.84500 511.0
5.85500 484.0
5.86500 514.0
5.87500 546.0
5.88500 573.0
5.89500 538.0
5.90500 552.0
5.91500 560.0
5.92500 575.0
5.93500 482.0
5.94500 491.0
5.95500 441.0
5.96500 532.0
5.97500 492.0
5.98500 464.0
5.99500 470.0
6.00500 485.0
6.01500 547.0
6.02500 498.0
6.03500 551.0
6.04500 591.0
6.05500 563.0
6.06500 500.0
6.07500 518.0
6.08500 661.0
6.09500 706.0
6.10500 754.0
6.11500 749.0
6.12500 642.0
6.13500 718.0
6.14500 809.0
6.15500 772.0
6.16500 843.0
6.17500 880.0
6.18500 866.0
6.19500 854.0
6.20500 867.0
6.21500 711.0
6.22500 686.0
6.23500 769.0
6.24500 945.0
6.25500 1310.0
6.26500 1756.0
6.27500 2164.0
6.28500 2741.0
6.29500 3554.0
6.30500 5555.0
6.31500 8756.0
6.32500 13837.0
6.33500 19523.0
6.34500 23172.0
6.35500 23032.0
6.36500 18867.0
6.37500 13097.0
6.38500 8133.0
6.39500 4826.0
6.40500 3430.0
6.41500 2570.0
6.42500 2144.0
6.43500 1841.0
6.44500 1879.0
6.45500 1739.0
6.46500 1586.0
6.47500 1260.0
6.48500 924.0
6.49500 762.0
6.50500 639.0
6.51500 613.0
6.52500 559.0
6.53500 501.0
6.54500 469.0
6.55500 459.0
6.56500 460.0
6.57500 432.0
6.58500 426.0
6.59500 482.0
6.60500 449.0
6.61500 450.0
6.62500 445.0
6.63500 539.0
6.64500 508.0
6.65500 430.0
6.66500 414.0
6.67500 387.0
6.68500 413.0
6.69500 346.0
6.70500 349.0
6.71500 337.0
6.72500 329.0
6.73500 354.0
6.74500 355.0
6.75500 314.0
6.76500 283.0
6.77500 322.0
6.78500 353.0
6.79500 289.0
6.80500 319.0
6.81500 303.0
6.82500 286.0
6.83500 285.0
6.84500 261.0
6.85500 244.0
6.86500 275.0
6.87500 267.0
6.88500 290.0
6.89500 222.0
6.90500 259.0
6.91500 222.0
6.92500 244.0
6.93500 269.0
6.94500 236.0
6.95500 240.0
6.96500 289.0
6.97500 271.0
6.98500 286.0
6.99500 292.0
7.00500 249.0
7.01500 281.0
7.02500 266.0
7.03500 308.0
7.04500 273.0
7.05500 286.0
7.06500 224.0
7.07500 286.0
7.08500 284.0
7.09500 259.0
7.10500 306.0
7.11500 317.0
7.12500 307.0
7.13500 289.0
7.14500 260.0
7.15500 290.0
7.16500 240.0
7.17500 243.0
7.18500 222.0
7.19500 254.0
7.20500 234.0
7.21500 236.0
7.22500 218.0
7.23500 226.0
7.24500 209.0
7.25500 256.0
7.26500 212.0
7.27500 274.0
7.28500 240.0
7.29500 207.0
7.30500 251.0
7.31500 259.0
7.32500 291.0
7.33500 236.0
7.34500 257.0
7.35500 241.0
7.36500 236.0
7.37500 225.0
7.38500 236.0
7.39500 205.0
7.40500 246.0
7.41500 257.0
7.42500 231.0
7.43500 241.0
7.44500 242.0
7.45500 202.0
7.46500 220.0
7.47500 217.0
7.48500 199.0
7.49500 238.0
7.50500 197.0
7.51500 253.0
7.52500 212.0
7.53500 235.0
7.54500 227.0
7.55500 222.0
7.56500 252.0
7.57500 192.0
7.58500 231.0
7.59500 214.0
7.60500 214.0
7.61500 197.0
7.62500 217.0
7.63500 198.0
7.64500 222.0
7.65500 221.0
7.66500 203.0
7.67500 207.0
7.68500 201.0
7.69500 243.0
7.70500 219.0
7.71500 254.0
7.72500 237.0
7.73500 241.0
7.74500 281.0
7.75500 288.0
7.76500 257.0
7.77500 239.0
7.78500 243.0
7.79500 251.0
7.80500 255.0
7.81500 216.0
7.82500 261.0
7.83500 264.0
7.84500 248.0
7.85500 280.0
7.86500 262.0
7.87500 300.0
7.88500 279.0
7.89500 265.0
7.90500 236.0
7.91500 303.0
7.92500 233.0
7.93500 249.0
7.94500 259.0
7.95500 265.0
7.96500 332.0
7.97500 314.0
7.98500 298.0
7.99500 254.0
8.00500 222.0
8.01500 229.0
8.02500 290.0
8.03500 285.0
8.04500 271.0
8.05500 240.0
8.06500 257.0
8.07500 282.0
8.08500 255.0
8.09500 243.0
8.10500 278.0
8.11500 266.0
8.12500 286.0
8.13500 276.0
8.14500 277.0
8.15500 288.0
8.16500 207.0
8.17500 323.0
8.18500 242.0
8.19500 245.0
8.20500 248.0
8.21500 274.0
8.22500 248.0
8.23500 282.0
8.24500 277.0
8.25500 273.0
8.26500 290.0
8.27500 210.0
8.28500 207.0
8.29500 198.0
8.30500 213.0
8.31500 215.0
8.32500 281.0
8.33500 224.0
8.34500 233.0
8.35500 248.0
8.36500 215.0
8.37500 222.0
8.38500 176.0
8.39500 286.0
8.40500 292.0
8.41500 381.0
8.42500 615.0
8.43500 781.0
8.44500 932.0
8.45500 1013.0
8.46500 925.0
8.47500 731.0
8.48500 568.0
8.49500 414.0
8.50500 360.0
8.51500 345.0
8.52500 345.0
8.53500 275.0
8.54500 298.0
8.55500 293.0
8.56500 317.0
8.57500 272.0
8.58500 233.0
8.59500 230.0
8.60500 225.0
8.61500 247.0
8.62500 267.0
8.63500 290.0
8.64500 231.0
8.65500 266.0
8.66500 261.0
8.67500 224.0
8.68500 214.0
8.69500 207.0
8.70500 208.0
8.71500 206.0
8.72500 174.0
8.73500 227.0
8.74500 209.0
8.75500 220.0
8.76500 196.0
8.77500 199.0
8.78500 190.0
8.79500 207.0
8.80500 234.0
8.81500 241.0
8.82500 209.0
8.83500 200.0
8.84500 192.0
8.85500 220.0
8.86500 225.0
8.87500 170.0
8.88500 195.0
8.89500 220.0
8.90500 212.0
8.91500 225.0
8.92500 249.0
8.93500 211.0
8.94500 271.0
8.95500 190.0
8.96500 209.0
8.97500 210.0
8.98500 255.0
8.99500 235.0
9.00500 250.0
9.01500 227.0
9.02500 225.0
9.03500 224.0
9.04500 243.0
9.05500 230.0
9.06500 246.0
9.07500 275.0
9.08500 247.0
9.09500 243.0
9.10500 253.0
9.11500 283.0
9.12500 238.0
9.13500 232.0
9.14500 252.0
9.15500 192.0
9.16500 226.0
9.17500 198.0
9.18500 216.0
9.19500 234.0
9.20500 214.0
9.21500 230.0
9.22500 249.0
9.23500 235.0
9.24500 220.0
9.25500 225.0
9.26500 207.0
9.27500 262.0
9.28500 221.0
9.29500 198.0
9.30500 257.0
9.31500 229.0
9.32500 244.0
9.33500 202.0
9.34500 224.0
9.35500 186.0
9.36500 172.0
9.37500 188.0
9.38500 183.0
9.39500 208.0
9.40500 276.0
9.41500 210.0
9.42500 271.0
9.43500 280.0
9.44500 297.0
9.45500 257.0
9.46500 233.0
9.47500 307.0
9.48500 254.0
9.49500 229.0
9.50500 201.0
9.51500 261.0
9.52500 233.0
9.53500 283.0
9.54500 263.0
9.55500 210.0
9.56500 265.0
9.57500 177.0
9.58500 189.0
9.59500 173.0
9.60500 182.0
9.61500 169.0
9.62500 183.0
9.63500 204.0
9.64500 197.0
9.65500 175.0
9.66500 174.0
9.67500 225.0
9.68500 178.0
9.69500 172.0
9.70500 165.0
9.71500 166.0
9.72500 165.0
9.73500 179.0
9.74500 183.0
9.75500 182.0
9.76500 229.0
9.77500 217.0
9.78500 203.0
9.79500 195.0
9.80500 143.0
9.81500 161.0
9.82500 151.0
9.83500 143.0
9.84500 174.0
9.85500 195.0
9.86500 179.0
9.87500 191.0
9.88500 171.0
9.89500 185.0
9.90500 204.0
9.91500 215.0
9.92500 191.0
9.93500 177.0
9.94500 148.0
9.95500 137.0
9.96500 168.0
9.97500 182.0
9.98500 200.0
9.99500 199.0
10.00500 172.0
10.01500 150.0
10.02500 168.0
10.03500 173.0
10.04500 191.0
10.05500 185.0
10.06500 175.0
10.07500 192.0
10.08500 186.0
10.09500 174.0
10.10500 147.0
10.11500 159.0
10.12500 139.0
10.13500 147.0
10.14500 174.0
10.15500 164.0
10.16500 169.0
10.17500 179.0
10.18500 142.0
10.19500 135.0
10.20500 159.0
10.21500 158.0
10.22500 178.0
10.23500 154.0
10.24500 132.0
10.25500 172.0
10.26500 156.0
10.27500 172.0
10.28500 197.0
10.29500 217.0
10.30500 208.0
10.31500 205.0
10.32500 203.0
10.33500 200.0
10.34500 174.0
10.35500 193.0
10.36500 237.0
10.37500 185.0
10.38500 194.0
10.39500 201.0
10.40500 207.0
10.41500 199.0
10.42500 181.0
10.43500 161.0
10.44500 174.0
10.45500 183.0
10.46500 192.0
10.47500 235.0
10.48500 247.0
10.49500 284.0
10.50500 333.0
10.51500 407.0
10.52500 457.0
10.53500 452.0
10.54500 492.0
10.55500 490.0
10.56500 393.0
10.57500 353.0
10.58500 362.0
10.59500 266.0
10.60500 267.0
10.61500 218.0
10.62500 210.0
10.63500 208.0
10.64500 211.0
10.65500 218.0
10.66500 231.0
10.67500 282.0
10.68500 261.0
10.69500 288.0
10.70500 225.0
10.71500 205.0
10.72500 187.0
10.73500 182.0
10.74500 213.0
10.75500 200.0
10.76500 195.0
10.77500 200.0
10.78500 228.0
10.79500 169.0
10.80500 181.0
10.81500 204.0
10.82500 187.0
10.83500 160.0
10.84500 186.0
10.85500 163.0
10.86500 175.0
10.87500 164.0
10.88500 171.0
10.89500 165.0
10.90500 167.0
10.91500 175.0
10.92500 193.0
10.93500 159.0
10.94500 160.0
10.95500 175.0
10.96500 161.0
10.97500 126.0
10.98500 135.0
10.99500 149.0
11.00500 185.0
11.01500 199.0
11.02500 221.0
11.03500 159.0
11.04500 186.0
11.05500 180.0
11.06500 146.0
11.07500 132.0
11.08500 184.0
11.09500 165.0
