0.01000 5431224.0
0.02000 5105208.0
0.03000 4236378.0
0.04000 2957681.0
0.05000 1604061.0
0.06000 717702.0
0.07000 395401.0
0.08000 375322.0
0.09000 415851.0
0.10000 463392.0
0.11000 510164.0
0.12000 558667.0
0.13000 605099.0
0.14000 657692.0
0.15000 711320.0
0.16000 750201.0
0.17000 801625.0
0.18000 842798.0
0.19000 886381.0
0.20000 936979.0
0.21000 981268.0
0.22000 1033204.0
0.23000 1073801.0
0.24000 1112638.0
0.25000 1164809.0
0.26000 1206477.0
0.27000 1243954.0
0.28000 1296640.0
0.29000 1326121.0
0.30000 1377214.0
0.31000 1415360.0
0.32000 1447219.0
0.33000 1490368.0
0.34000 1523315.0
0.35000 1550136.0
0.36000 1595619.0
0.37000 1622991.0
0.38000 1665607.0
0.39000 1697972.0
0.40000 1727775.0
0.41000 1764208.0
0.42000 1793114.0
0.43000 1847864.0
0.44000 1868241.0
0.45000 1897404.0
0.46000 1925567.0
0.47000 1952647.0
0.48000 1986217.0
0.49000 2009612.0
0.50000 2033114.0
0.51000 2062858.0
0.52000 2079295.0
0.53000 2107493.0
0.54000 2124620.0
0.55000 2142238.0
0.56000 2166493.0
0.57000 2176856.0
0.58000 2200924.0
0.59000 2209332.0
0.60000 2218621.0
0.61000 2269250.0
0.62000 2258550.0
0.63000 2289697.0
0.64000 2290981.0
0.65000 2270725.0
0.66000 2279708.0
0.67000 2243742.0
0.68000 2194643.0
0.69000 2121779.0
0.70000 2004199.0
0.71000 1860394.0
0.72000 1664383.0
0.73000 1455752.0
0.74000 1232778.0
0.75000 1046132.0
0.76000 887467.0
0.77000 756599.0
0.78000 663758.0
0.79000 580565.0
0.80000 516307.0
0.81000 466762.0
0.82000 422415.0
0.83000 383182.0
0.84000 350564.0
0.85000 324313.0
0.86000 301554.0
0.87000 278214.0
0.88000 259255.0
0.89000 241812.0
0.90000 223647.0
0.91000 208792.0
0.92000 194852.0
0.93000 184049.0
0.94000 171573.0
0.95000 162344.0
0.96000 152733.0
0.97000 144671.0
0.98000 136200.0
0.99000 129405.0
1.00000 122668.0
1.01000 116534.0
1.02000 111106.0
1.03000 106054.0
1.04000 102056.0
1.05000 96322.0
1.06000 91512.0
1.07000 87614.0
1.08000 83925.0
1.09000 80528.0
1.10000 77574.0
1.11000 74142.0
1.12000 70762.0
1.13000 68162.0
1.14000 66222.0
1.15000 63509.0
1.16000 61042.0
1.17000 58486.0
1.18000 56771.0
1.19000 54759.0
1.20000 52726.0
1.21000 51221.0
1.22000 49525.0
1.23000 48140.0
1.24000 47033.0
1.25000 45635.0
1.26000 43494.0
1.27000 42813.0
1.28000 41872.0
1.29000 40536.0
1.30000 39430.0
1.31000 38111.0
1.32000 37035.0
1.33000 36090.0
1.34000 34753.0
1.35000 33831.0
1.36000 33095.0
1.37000 32182.0
1.38000 31626.0
1.39000 31555.0
1.40000 30931.0
1.41000 30599.0
1.42000 29985.0
1.43000 29412.0
1.44000 29678.0
1.45000 28876.0
1.46000 28419.0
1.47000 27847.0
1.48000 27379.0
1.49000 27279.0
1.50000 26597.0
1.51000 26509.0
1.52000 26321.0
1.53000 26491.0
1.54000 26721.0
1.55000 26063.0
1.56000 26465.0
1.57000 26773.0
1.58000 27118.0
1.59000 27912.0
1.60000 29292.0
1.61000 29721.0
1.62000 30617.0
1.63000 32199.0
1.64000 33627.0
1.65000 35853.0
1.66000 39079.0
1.67000 42687.0
1.68000 47966.0
1.69000 56538.0
1.70000 67155.0
1.71000 82644.0
1.72000 108918.0
1.73000 153619.0
1.74000 238456.0
1.75000 378417.0
1.76000 558609.0
1.77000 735054.0
1.78000 791233.0
1.79000 693223.0
1.80000 486595.0
1.81000 300004.0
1.82000 179948.0
1.83000 116969.0
1.84000 78456.0
1.85000 52589.0
1.86000 37830.0
1.87000 28190.0
1.88000 21814.0
1.89000 17403.0
1.90000 13902.0
1.91000 10642.0
1.92000 8662.0
1.93000 7260.0
1.94000 6058.0
1.95000 5129.0
1.96000 4471.0
1.97000 3877.0
1.98000 3333.0
1.99000 3004.0
2.00000 2637.0
2.01000 2438.0
2.02000 2186.0
2.03000 2124.0
2.04000 1957.0
2.05000 1771.0
2.06000 1700.0
2.07000 1680.0
2.08000 1563.0
2.09000 1406.0
2.10000 1356.0
2.11000 1314.0
2.12000 1263.0
2.13000 1270.0
2.14000 1177.0
2.15000 1133.0
2.16000 1097.0
2.17000 984.0
2.18000 1009.0
2.19000 964.0
2.20000 951.0
2.21000 956.0
2.22000 951.0
2.23000 852.0
2.24000 862.0
2.25000 814.0
2.26000 901.0
2.27000 841.0
2.28000 865.0
2.29000 831.0
2.30000 828.0
2.31000 825.0
2.32000 773.0
2.33000 766.0
2.34000 785.0
2.35000 750.0
2.36000 722.0
2.37000 722.0
2.38000 671.0
2.39000 681.0
2.40000 672.0
2.41000 678.0
2.42000 620.0
2.43000 576.0
2.44000 619.0
2.45000 570.0
2.46000 635.0
2.47000 632.0
2.48000 601.0
2.49000 565.0
2.50000 583.0
2.51000 564.0
2.52000 568.0
2.53000 622.0
2.54000 558.0
2.55000 593.0
2.56000 595.0
2.57000 568.0
2.58000 536.0
2.59000 566.0
2.60000 492.0
2.61000 522.0
2.62000 506.0
2.63000 528.0
2.64000 476.0
2.65000 467.0
2.66000 469.0
2.67000 470.0
2.68000 519.0
2.69000 521.0
2.70000 428.0
2.71000 462.0
2.72000 463.0
2.73000 438.0
2.74000 391.0
2.75000 421.0
2.76000 401.0
2.77000 397.0
2.78000 407.0
2.79000 422.0
2.80000 404.0
2.81000 437.0
2.82000 439.0
2.83000 395.0
2.84000 393.0
2.85000 416.0
2.86000 372.0
2.87000 355.0
2.88000 382.0
2.89000 350.0
2.90000 373.0
2.91000 366.0
2.92000 364.0
2.93000 321.0
2.94000 337.0
2.95000 343.0
2.96000 337.0
2.97000 383.0
2.98000 383.0
2.99000 354.0
3.00000 337.0
3.01000 373.0
3.02000 397.0
3.03000 372.0
3.04000 344.0
3.05000 293.0
3.06000 328.0
3.07000 372.0
3.08000 371.0
3.09000 383.0
3.10000 361.0
3.11000 361.0
3.12000 390.0
3.13000 400.0
3.14000 385.0
3.15000 437.0
3.16000 449.0
3.17000 497.0
3.18000 539.0
3.19000 586.0
3.20000 708.0
3.21000 845.0
3.22000 932.0
3.23000 991.0
3.24000 1153.0
3.25000 1393.0
3.26000 1801.0
3.27000 2485.0
3.28000 3802.0
3.29000 6109.0
3.30000 9660.0
3.31000 14401.0
3.32000 18513.0
3.33000 19675.0
3.34000 17014.0
3.35000 12339.0
3.36000 7834.0
3.37000 5248.0
3.38000 3981.0
3.39000 2865.0
3.40000 2133.0
3.41000 1580.0
3.42000 1282.0
3.43000 1004.0
3.44000 879.0
3.45000 776.0
3.46000 704.0
3.47000 659.0
3.48000 583.0
3.49000 497.0
3.50000 480.0
3.51000 437.0
3.52000 398.0
3.53000 377.0
3.54000 360.0
3.55000 301.0
3.56000 296.0
3.57000 260.0
3.58000 243.0
3.59000 227.0
3.60000 204.0
3.61000 208.0
3.62000 157.0
3.63000 210.0
3.64000 168.0
3.65000 183.0
3.66000 191.0
3.67000 158.0
3.68000 177.0
3.69000 137.0
3.70000 207.0
3.71000 173.0
3.72000 149.0
3.73000 163.0
3.74000 108.0
3.75000 155.0
3.76000 130.0
3.77000 133.0
3.78000 126.0
3.79000 117.0
3.80000 89.0
3.81000 130.0
3.82000 110.0
3.83000 121.0
3.84000 135.0
3.85000 91.0
3.86000 94.0
3.87000 100.0
3.88000 103.0
3.89000 97.0
3.90000 102.0
3.91000 113.0
3.92000 105.0
3.93000 94.0
3.94000 75.0
3.95000 72.0
3.96000 102.0
3.97000 81.0
3.98000 85.0
3.99000 87.0
4.00000 90.0
4.01000 83.0
4.02000 98.0
4.03000 82.0
4.04000 77.0
4.05000 73.0
4.06000 103.0
4.07000 87.0
4.08000 84.0
4.09000 80.0
4.10000 90.0
4.11000 98.0
4.12000 91.0
4.13000 105.0
4.14000 72.0
4.15000 103.0
4.16000 106.0
4.17000 95.0
4.18000 74.0
4.19000 68.0
4.20000 70.0
4.21000 94.0
4.22000 64.0
4.23000 64.0
4.24000 70.0
4.25000 72.0
4.26000 78.0
4.27000 96.0
4.28000 104.0
4.29000 98.0
4.30000 71.0
4.31000 83.0
4.32000 84.0
4.33000 54.0
4.34000 83.0
4.35000 94.0
4.36000 95.0
4.37000 105.0
4.38000 71.0
4.39000 73.0
4.40000 67.0
4.41000 60.0
4.42000 63.0
4.43000 72.0
4.44000 76.0
4.45000 59.0
4.46000 62.0
4.47000 64.0
4.48000 57.0
4.49000 61.0
4.50000 97.0
4.51000 66.0
4.52000 78.0
4.53000 41.0
4.54000 70.0
4.55000 83.0
4.56000 78.0
4.57000 74.0
4.58000 72.0
4.59000 81.0
4.60000 60.0
4.61000 41.0
4.62000 51.0
4.63000 65.0
4.64000 47.0
4.65000 41.0
4.66000 59.0
4.67000 42.0
4.68000 48.0
4.69000 44.0
4.70000 49.0
4.71000 58.0
4.72000 87.0
4.73000 54.0
4.74000 61.0
4.75000 60.0
4.76000 74.0
4.77000 72.0
4.78000 70.0
4.79000 60.0
4.80000 78.0
4.81000 89.0
4.82000 89.0
4.83000 80.0
4.84000 107.0
4.85000 103.0
4.86000 150.0
4.87000 169.0
4.88000 251.0
4.89000 350.0
4.90000 442.0
4.91000 575.0
4.92000 563.0
4.93000 538.0
4.94000 337.0
4.95000 234.0
4.96000 177.0
4.97000 120.0
4.98000 130.0
4.99000 108.0
5.00000 107.0
5.01000 113.0
5.02000 97.0
5.03000 95.0
5.04000 65.0
5.05000 75.0
5.06000 52.0
5.07000 46.0
5.08000 65.0
5.09000 65.0
5.10000 58.0
5.11000 69.0
5.12000 53.0
5.13000 56.0
5.14000 54.0
5.15000 51.0
5.16000 42.0
5.17000 39.0
5.18000 37.0
5.19000 36.0
5.20000 43.0
5.21000 49.0
5.22000 48.0
5.23000 49.0
5.24000 48.0
5.25000 52.0
5.26000 44.0
5.27000 32.0
5.28000 37.0
5.29000 34.0
5.30000 46.0
5.31000 39.0
5.32000 32.0
5.33000 38.0
5.34000 50.0
5.35000 49.0
5.36000 38.0
5.37000 39.0
5.38000 27.0
5.39000 27.0
5.40000 35.0
5.41000 49.0
5.42000 42.0
5.43000 43.0
5.44000 42.0
5.45000 33.0
5.46000 41.0
5.47000 36.0
5.48000 40.0
5.49000 35.0
5.50000 50.0
5.51000 30.0
5.52000 31.0
5.53000 27.0
5.54000 32.0
5.55000 32.0
5.56000 45.0
5.57000 38.0
5.58000 35.0
5.59000 52.0
5.60000 41.0
5.61000 24.0
5.62000 21.0
5.63000 47.0
5.64000 44.0
5.65000 44.0
5.66000 39.0
5.67000 49.0
5.68000 36.0
5.69000 42.0
5.70000 51.0
5.71000 31.0
5.72000 27.0
5.73000 32.0
5.74000 39.0
5.75000 49.0
5.76000 31.0
5.77000 30.0
5.78000 56.0
5.79000 34.0
5.80000 32.0
5.81000 35.0
5.82000 32.0
5.83000 24.0
5.84000 22.0
5.85000 33.0
5.86000 18.0
5.87000 26.0
5.88000 24.0
5.89000 26.0
5.90000 39.0
5.91000 34.0
5.92000 43.0
5.93000 27.0
5.94000 48.0
5.95000 37.0
5.96000 39.0
5.97000 50.0
5.98000 44.0
5.99000 39.0
6.00000 37.0
6.01000 47.0
6.02000 43.0
6.03000 38.0
6.04000 49.0
6.05000 39.0
6.06000 34.0
6.07000 26.0
6.08000 30.0
6.09000 47.0
6.10000 52.0
6.11000 40.0
6.12000 50.0
6.13000 51.0
6.14000 37.0
6.15000 26.0
6.16000 39.0
6.17000 34.0
6.18000 43.0
6.19000 43.0
6.20000 48.0
6.21000 54.0
6.22000 52.0
6.23000 77.0
6.24000 30.0
6.25000 46.0
6.26000 45.0
6.27000 42.0
6.28000 39.0
6.29000 28.0
6.30000 42.0
6.31000 37.0
6.32000 27.0
6.33000 59.0
6.34000 46.0
6.35000 48.0
6.36000 36.0
6.37000 60.0
6.38000 54.0
6.39000 67.0
6.40000 56.0
6.41000 97.0
6.42000 72.0
6.43000 59.0
6.44000 93.0
6.45000 78.0
6.46000 55.0
6.47000 53.0
6.48000 79.0
6.49000 74.0
6.50000 100.0
6.51000 100.0
6.52000 110.0
6.53000 122.0
6.54000 144.0
6.55000 142.0
6.56000 108.0
6.57000 67.0
6.58000 83.0
6.59000 67.0
6.60000 73.0
6.61000 60.0
6.62000 87.0
6.63000 56.0
6.64000 58.0
6.65000 39.0
6.66000 42.0
6.67000 50.0
6.68000 57.0
6.69000 39.0
6.70000 38.0
6.71000 29.0
6.72000 50.0
6.73000 46.0
6.74000 30.0
6.75000 34.0
6.76000 53.0
6.77000 41.0
6.78000 45.0
6.79000 46.0
6.80000 56.0
6.81000 54.0
6.82000 52.0
6.83000 47.0
6.84000 44.0
6.85000 28.0
6.86000 37.0
6.87000 46.0
6.88000 45.0
6.89000 39.0
6.90000 41.0
6.91000 38.0
6.92000 41.0
6.93000 39.0
6.94000 51.0
6.95000 65.0
6.96000 46.0
6.97000 47.0
6.98000 39.0
6.99000 46.0
