0.01000 14131963.0
0.01500 14064371.0
0.02000 13161906.0
0.02500 11890618.0
0.03000 10433936.0
0.03500 8936503.0
0.04000 7408342.0
0.04500 5896280.0
0.05000 4585973.0
0.05500 3595946.0
0.06000 2938290.0
0.06500 2586814.0
0.07000 2482724.0
0.07500 2513170.0
0.08000 2613989.0
0.08500 2756592.0
0.09000 2891082.0
0.09500 3022999.0
0.10000 3169765.0
0.10500 3315794.0
0.11000 3465204.0
0.11500 3628206.0
0.12000 3792720.0
0.12500 3916390.0
0.13000 4061795.0
0.13500 4208382.0
0.14000 4370491.0
0.14500 4500593.0
0.15000 4617917.0
0.15500 4775578.0
0.16000 4898362.0
0.16500 5046070.0
0.17000 5198713.0
0.17500 5328360.0
0.18000 5474241.0
0.18500 5597945.0
0.19000 5752282.0
0.19500 5869440.0
0.20000 6015298.0
0.20500 6154464.0
0.21000 6258161.0
0.21500 6401005.0
0.22000 6510889.0
0.22500 6633549.0
0.23000 6786419.0
0.23500 6910407.0
0.24000 7045011.0
0.24500 7162082.0
0.25000 7262594.0
0.25500 7411880.0
0.26000 7511094.0
0.26500 7630209.0
0.27000 7718404.0
0.27500 7854195.0
0.28000 7896565.0
0.28500 7980686.0
0.29000 8069625.0
0.29500 8144786.0
0.30000 8244784.0
0.30500 8326792.0
0.31000 8439105.0
0.31500 8565162.0
0.32000 8639143.0
0.32500 8789327.0
0.33000 8898462.0
0.33500 8964690.0
0.34000 9063586.0
0.34500 9231220.0
0.35000 9266240.0
0.35500 9288472.0
0.36000 9370593.0
0.36500 9441540.0
0.37000 9538478.0
0.37500 9569800.0
0.38000 9630022.0
0.38500 9708585.0
0.39000 9767287.0
0.39500 9787161.0
0.40000 9847411.0
0.40500 9871834.0
0.41000 9824269.0
0.41500 9787036.0
0.42000 9666964.0
0.42500 9459246.0
0.43000 9054371.0
0.43500 8450603.0
0.44000 7649647.0
0.44500 6655050.0
0.45000 5635419.0
0.45500 4671929.0
0.46000 3836527.0
0.46500 3133158.0
0.47000 2607757.0
0.47500 2183645.0
0.48000 1872841.0
0.48500 1635646.0
0.49000 1424711.0
0.49500 1260139.0
0.50000 1115718.0
0.50500 994774.0
0.51000 895355.0
0.51500 813985.0
0.52000 735473.0
0.52500 667249.0
0.53000 598924.0
0.53500 547980.0
0.54000 503634.0
0.54500 461796.0
0.55000 422140.0
0.55500 385369.0
0.56000 356229.0
0.56500 328991.0
0.57000 304153.0
0.57500 283135.0
0.58000 258593.0
0.58500 241233.0
0.59000 225313.0
0.59500 210137.0
0.60000 194437.0
0.60500 181224.0
0.61000 169706.0
0.61500 160107.0
0.62000 150528.0
0.62500 141175.0
0.63000 132188.0
0.63500 123783.0
0.64000 118323.0
0.64500 111923.0
0.65000 106238.0
0.65500 99288.0
0.66000 94111.0
0.66500 90105.0
0.67000 86044.0
0.67500 81460.0
0.68000 78103.0
0.68500 73601.0
0.69000 71538.0
0.69500 69294.0
0.70000 65928.0
0.70500 63132.0
0.71000 60547.0
0.71500 59127.0
0.72000 56905.0
0.72500 55833.0
0.73000 53298.0
0.73500 51758.0
0.74000 50358.0
0.74500 49851.0
0.75000 48541.0
0.75500 46971.0
0.76000 46382.0
0.76500 45759.0
0.77000 44469.0
0.77500 44933.0
0.78000 43279.0
0.78500 42782.0
0.79000 42221.0
0.79500 41438.0
0.80000 40865.0
0.80500 40993.0
0.81000 39912.0
0.81500 39993.0
0.82000 39474.0
0.82500 39209.0
0.83000 38646.0
0.83500 38378.0
0.84000 38135.0
0.84500 37746.0
0.85000 37318.0
0.85500 37361.0
0.86000 37503.0
0.86500 36868.0
0.87000 36883.0
0.87500 36760.0
0.88000 36221.0
0.88500 36484.0
0.89000 36276.0
0.89500 36179.0
0.90000 35528.0
0.90500 35583.0
0.91000 35587.0
0.91500 34923.0
0.92000 34964.0
0.92500 34808.0
0.93000 35127.0
0.93500 34420.0
0.94000 34690.0
0.94500 34525.0
0.95000 33799.0
0.95500 33691.0
0.96000 33439.0
0.96500 33126.0
0.97000 33638.0
0.97500 33246.0
0.98000 32568.0
0.98500 32628.0
0.99000 32635.0
0.99500 32060.0
1.00000 32092.0
1.00500 32155.0
1.01000 31490.0
1.01500 31305.0
1.02000 31520.0
1.02500 30966.0
1.03000 30743.0
1.03500 30471.0
1.04000 30286.0
1.04500 30233.0
1.05000 29889.0
1.05500 29531.0
1.06000 29436.0
1.06500 29265.0
1.07000 28803.0
1.07500 28373.0
1.08000 28568.0
1.08500 28198.0
1.09000 27654.0
1.09500 27595.0
1.10000 27147.0
1.10500 26587.0
1.11000 26590.0
1.11500 26334.0
1.12000 26010.0
1.12500 25792.0
1.13000 25516.0
1.13500 25247.0
1.14000 25110.0
1.14500 24630.0
1.15000 24449.0
1.15500 24067.0
1.16000 23373.0
1.16500 23433.0
1.17000 22941.0
1.17500 22839.0
1.18000 22362.0
1.18500 21901.0
1.19000 21741.0
1.19500 21490.0
1.20000 21502.0
1.20500 20897.0
1.21000 20368.0
1.21500 20325.0
1.22000 20377.0
1.22500 20171.0
1.23000 19418.0
1.23500 19311.0
1.24000 18948.0
1.24500 18977.0
1.25000 18423.0
1.25500 18420.0
1.26000 17847.0
1.26500 17416.0
1.27000 17391.0
1.27500 16907.0
1.28000 16550.0
1.28500 16268.0
1.29000 15746.0
1.29500 15842.0
1.30000 15356.0
1.30500 15420.0
1.31000 14625.0
1.31500 14732.0
1.32000 14340.0
1.32500 14344.0
1.33000 14056.0
1.33500 13503.0
1.34000 13438.0
1.34500 13186.0
1.35000 13007.0
1.35500 12518.0
1.36000 12484.0
1.36500 12177.0
1.37000 11826.0
1.37500 11780.0
1.38000 11348.0
1.38500 11256.0
1.39000 11281.0
1.39500 10637.0
1.40000 10431.0
1.40500 10212.0
1.41000 9863.0
1.41500 9912.0
1.42000 9716.0
1.42500 9453.0
1.43000 9226.0
1.43500 9084.0
1.44000 8821.0
1.44500 8684.0
1.45000 8311.0
1.45500 8281.0
1.46000 8076.0
1.46500 7727.0
1.47000 7625.0
1.47500 7414.0
1.48000 7187.0
1.48500 7105.0
1.49000 6772.0
1.49500 6716.0
1.50000 6691.0
1.50500 6367.0
1.51000 6327.0
1.51500 5945.0
1.52000 6018.0
1.52500 5666.0
1.53000 5551.0
1.53500 5572.0
1.54000 5435.0
1.54500 5106.0
1.55000 4855.0
1.55500 4944.0
1.56000 4699.0
1.56500 4625.0
1.57000 4285.0
1.57500 4322.0
1.58000 4344.0
1.58500 4235.0
1.59000 4149.0
1.59500 3916.0
1.60000 3773.0
1.60500 3707.0
1.61000 3638.0
1.61500 3414.0
1.62000 3272.0
1.62500 3422.0
1.63000 3227.0
1.63500 3145.0
1.64000 3068.0
1.64500 2874.0
1.65000 2738.0
1.65500 2729.0
1.66000 2600.0
1.66500 2474.0
1.67000 2577.0
1.67500 2424.0
1.68000 2416.0
1.68500 2386.0
1.69000 2241.0
1.69500 2165.0
1.70000 2084.0
1.70500 2048.0
1.71000 1887.0
1.71500 1925.0
1.72000 1843.0
1.72500 1798.0
1.73000 1786.0
1.73500 1757.0
1.74000 1783.0
1.74500 1690.0
1.75000 1610.0
1.75500 1523.0
1.76000 1577.0
1.76500 1485.0
1.77000 1358.0
1.77500 1339.0
1.78000 1279.0
1.78500 1312.0
1.79000 1281.0
1.79500 1230.0
1.80000 1192.0
1.80500 1133.0
1.81000 1190.0
1.81500 1121.0
1.82000 1144.0
1.82500 1130.0
1.83000 1054.0
1.83500 1090.0
1.84000 986.0
1.84500 967.0
1.85000 1003.0
1.85500 955.0
1.86000 963.0
1.86500 955.0
1.87000 960.0
1.87500 952.0
1.88000 856.0
1.88500 932.0
1.89000 915.0
1.89500 864.0
1.90000 890.0
1.90500 887.0
1.91000 882.0
1.91500 872.0
1.92000 941.0
1.92500 869.0
1.93000 828.0
1.93500 847.0
1.94000 873.0
1.94500 914.0
1.95000 859.0
1.95500 822.0
1.96000 882.0
1.96500 831.0
1.97000 813.0
1.97500 851.0
1.98000 838.0
1.98500 817.0
1.99000 877.0
1.99500 887.0
2.00000 905.0
2.00500 875.0
2.01000 798.0
2.01500 842.0
2.02000 872.0
2.02500 885.0
2.03000 851.0
2.03500 868.0
2.04000 864.0
2.04500 905.0
2.05000 907.0
2.05500 935.0
2.06000 873.0
2.06500 885.0
2.07000 954.0
2.07500 943.0
2.08000 924.0
2.08500 901.0
2.09000 1013.0
2.09500 892.0
2.10000 1019.0
2.10500 949.0
2.11000 966.0
2.11500 929.0
2.12000 996.0
2.12500 1029.0
2.13000 1027.0
2.13500 991.0
2.14000 994.0
2.14500 1016.0
2.15000 1026.0
2.15500 923.0
2.16000 1014.0
2.16500 1019.0
2.17000 971.0
2.17500 977.0
2.18000 997.0
2.18500 1075.0
2.19000 1015.0
2.19500 1042.0
2.20000 1048.0
2.20500 1033.0
2.21000 1050.0
2.21500 1089.0
2.22000 1017.0
2.22500 1070.0
2.23000 1020.0
2.23500 1067.0
2.24000 1058.0
2.24500 1077.0
2.25000 1164.0
2.25500 1170.0
2.26000 1123.0
2.26500 1168.0
2.27000 1129.0
2.27500 1079.0
2.28000 1147.0
2.28500 1075.0
2.29000 1098.0
2.29500 1080.0
2.30000 1071.0
2.30500 1079.0
2.31000 1048.0
2.31500 1041.0
2.32000 1056.0
2.32500 1043.0
2.33000 1054.0
2.33500 1019.0
2.34000 945.0
2.34500 1006.0
2.35000 1049.0
2.35500 1018.0
2.36000 1033.0
2.36500 1039.0
2.37000 984.0
2.37500 1062.0
2.38000 964.0
2.38500 932.0
2.39000 928.0
2.39500 1037.0
2.40000 996.0
2.40500 967.0
2.41000 985.0
2.41500 950.0
2.42000 963.0
2.42500 960.0
2.43000 907.0
2.43500 915.0
2.44000 905.0
2.44500 906.0
2.45000 911.0
2.45500 917.0
2.46000 927.0
2.46500 882.0
2.47000 904.0
2.47500 849.0
2.48000 806.0
2.48500 837.0
2.49000 788.0
2.49500 787.0
2.50000 791.0
2.50500 767.0
2.51000 748.0
2.51500 769.0
2.52000 726.0
2.52500 757.0
2.53000 726.0
2.53500 692.0
2.54000 726.0
2.54500 679.0
2.55000 668.0
2.55500 649.0
2.56000 693.0
2.56500 651.0
2.57000 620.0
2.57500 595.0
2.58000 628.0
2.58500 630.0
2.59000 598.0
2.59500 609.0
2.60000 554.0
2.60500 543.0
2.61000 602.0
2.61500 557.0
2.62000 564.0
2.62500 560.0
2.63000 518.0
2.63500 564.0
2.64000 513.0
2.64500 526.0
2.65000 540.0
2.65500 504.0
2.66000 508.0
2.66500 446.0
2.67000 462.0
2.67500 467.0
2.68000 446.0
2.68500 448.0
2.69000 475.0
2.69500 438.0
2.70000 399.0
2.70500 399.0
2.71000 405.0
2.71500 367.0
2.72000 386.0
2.72500 364.0
2.73000 370.0
2.73500 337.0
2.74000 371.0
2.74500 382.0
2.75000 353.0
2.75500 329.0
2.76000 320.0
2.76500 337.0
2.77000 317.0
2.77500 314.0
2.78000 276.0
2.78500 296.0
2.79000 257.0
2.79500 309.0
2.80000 291.0
2.80500 266.0
2.81000 259.0
2.81500 269.0
2.82000 229.0
2.82500 266.0
2.83000 267.0
2.83500 224.0
2.84000 244.0
2.84500 258.0
2.85000 228.0
2.85500 204.0
2.86000 217.0
2.86500 191.0
2.87000 201.0
2.87500 202.0
2.88000 184.0
2.88500 170.0
2.89000 165.0
2.89500 176.0
2.90000 172.0
2.90500 174.0
2.91000 185.0
2.91500 168.0
2.92000 175.0
2.92500 159.0
2.93000 156.0
2.93500 129.0
2.94000 125.0
2.94500 139.0
2.95000 135.0
2.95500 124.0
2.96000 126.0
2.96500 124.0
2.97000 112.0
2.97500 110.0
2.98000 139.0
2.98500 107.0
2.99000 110.0
2.99500 110.0
3.00000 103.0
3.00500 101.0
3.01000 112.0
3.01500 102.0
3.02000 118.0
3.02500 128.0
3.03000 116.0
3.03500 146.0
3.04000 91.0
3.04500 131.0
3.05000 122.0
3.05500 102.0
3.06000 119.0
3.06500 120.0
3.07000 114.0
3.07500 103.0
3.08000 108.0
3.08500 92.0
3.09000 98.0
3.09500 100.0
3.10000 93.0
3.10500 110.0
3.11000 95.0
3.11500 132.0
3.12000 119.0
3.12500 94.0
3.13000 104.0
3.13500 118.0
3.14000 107.0
3.14500 103.0
3.15000 126.0
3.15500 99.0
3.16000 107.0
3.16500 121.0
3.17000 108.0
3.17500 109.0
3.18000 132.0
3.18500 107.0
3.19000 142.0
3.19500 141.0
3.20000 146.0
3.20500 125.0
3.21000 141.0
3.21500 145.0
3.22000 120.0
3.22500 129.0
3.23000 115.0
3.23500 118.0
3.24000 137.0
3.24500 131.0
3.25000 113.0
3.25500 116.0
3.26000 112.0
3.26500 148.0
3.27000 152.0
3.27500 166.0
3.28000 141.0
3.28500 179.0
3.29000 139.0
3.29500 153.0
3.30000 176.0
3.30500 173.0
3.31000 151.0
3.31500 147.0
3.32000 121.0
3.32500 136.0
3.33000 154.0
3.33500 165.0
3.34000 189.0
3.34500 193.0
3.35000 174.0
3.35500 181.0
3.36000 179.0
3.36500 153.0
3.37000 183.0
3.37500 171.0
3.38000 154.0
3.38500 166.0
3.39000 151.0
3.39500 149.0
3.40000 147.0
3.40500 141.0
3.41000 164.0
3.41500 162.0
3.42000 156.0
3.42500 145.0
3.43000 151.0
3.43500 145.0
3.44000 167.0
3.44500 159.0
3.45000 157.0
3.45500 143.0
3.46000 127.0
3.46500 137.0
3.47000 129.0
3.47500 164.0
3.48000 168.0
3.48500 138.0
3.49000 164.0
3.49500 134.0
3.50000 152.0
3.50500 168.0
3.51000 164.0
3.51500 145.0
3.52000 150.0
3.52500 181.0
3.53000 174.0
3.53500 154.0
3.54000 151.0
3.54500 201.0
3.55000 178.0
3.55500 193.0
3.56000 203.0
3.56500 177.0
3.57000 191.0
3.57500 223.0
3.58000 169.0
3.58500 134.0
3.59000 150.0
3.59500 158.0
3.60000 117.0
3.60500 160.0
3.61000 161.0
3.61500 137.0
3.62000 149.0
3.62500 148.0
3.63000 127.0
3.63500 144.0
3.64000 139.0
3.64500 168.0
3.65000 151.0
3.65500 131.0
3.66000 166.0
3.66500 172.0
3.67000 170.0
3.67500 189.0
3.68000 181.0
3.68500 188.0
3.69000 152.0
3.69500 154.0
3.70000 184.0
3.70500 175.0
3.71000 159.0
3.71500 161.0
3.72000 202.0
