0.00500 38162528.0
0.01500 41548496.0
0.02500 33870320.0
0.03500 21520684.0
0.04500 11994350.0
0.05500 6609425.0
0.06500 4868794.0
0.07500 4940027.0
0.08500 5556144.0
0.09500 6220447.0
0.10500 6904570.0
0.11500 7614650.0
0.12500 8230906.0
0.13500 8892199.0
0.14500 9557469.0
0.15500 10179215.0
0.16500 10804327.0
0.17500 11460517.0
0.18500 12058551.0
0.19500 12683852.0
0.20500 13234203.0
0.21500 13733555.0
0.22500 14289895.0
0.23500 14863940.0
0.24500 15440969.0
0.25500 16027030.0
0.26500 16454665.0
0.27500 16902924.0
0.28500 17385966.0
0.29500 17843812.0
0.30500 18288152.0
0.31500 18786192.0
0.32500 19353930.0
0.33500 19721204.0
0.34500 20115840.0
0.35500 20417004.0
0.36500 20764432.0
0.37500 21294356.0
0.38500 21655492.0
0.39500 22005272.0
0.40500 22320262.0
0.41500 22561932.0
0.42500 22915190.0
0.43500 23083624.0
0.44500 23337776.0
0.45500 23513740.0
0.46500 23695178.0
0.47500 23855068.0
0.48500 24148680.0
0.49500 24232704.0
0.50500 24343124.0
0.51500 24412208.0
0.52500 24630718.0
0.53500 24674758.0
0.54500 24642264.0
0.55500 24714220.0
0.56500 24687544.0
0.57500 24581668.0
0.58500 24512580.0
0.59500 24263884.0
0.60500 24111896.0
0.61500 23872860.0
0.62500 23500908.0
0.63500 23284942.0
0.64500 22772136.0
0.65500 22072534.0
0.66500 21337698.0
0.67500 20235164.0
0.68500 19245480.0
0.69500 18097876.0
0.70500 16822484.0
0.71500 15518838.0
0.72500 14062298.0
0.73500 12861829.0
0.74500 11602586.0
0.75500 10578639.0
0.76500 9692655.0
0.77500 8857768.0
0.78500 8227420.0
0.79500 7540913.0
0.80500 7053097.0
0.81500 6639003.0
0.82500 6312734.0
0.83500 6038079.0
0.84500 5794206.0
0.85500 5566809.0
0.86500 5407633.0
0.87500 5294959.0
0.88500 5303468.0
0.89500 5389626.0
0.90500 5487375.0
0.91500 5619302.0
0.92500 5728175.0
0.93500 5898731.0
0.94500 6315127.0
0.95500 7054115.0
0.96500 8021690.0
0.97500 9190006.0
0.98500 10382545.0
0.99500 11315762.0
1.00500 11863276.0
1.01500 11948123.0
1.02500 11681536.0
1.03500 10916578.0
1.04500 10028223.0
1.05500 8694911.0
1.06500 7243462.0
1.07500 5826206.0
1.08500 4382393.0
1.09500 3216874.0
1.10500 2305388.0
1.11500 1653109.0
1.12500 1284475.0
1.13500 1093140.0
1.14500 996668.0
1.15500 909471.0
1.16500 775324.0
1.17500 616477.0
1.18500 445937.0
1.19500 319984.0
1.20500 256192.0
1.21500 248555.0
1.22500 284030.0
1.23500 346850.0
1.24500 398930.0
1.25500 393308.0
1.26500 321974.0
1.27500 226660.0
1.28500 163772.0
1.29500 191116.0
1.30500 295091.0
1.31500 413967.0
1.32500 463298.0
1.33500 421110.0
1.34500 306670.0
1.35500 199885.0
1.36500 143280.0
1.37500 152464.0
1.38500 191759.0
1.39500 217742.0
1.40500 201783.0
1.41500 156347.0
1.42500 103598.0
1.43500 65978.0
1.44500 44053.0
1.45500 36105.0
1.46500 38485.0
1.47500 50168.0
1.48500 68330.0
1.49500 84219.0
1.50500 87973.0
1.51500 78207.0
1.52500 58229.0
1.53500 41993.0
1.54500 33736.0
1.55500 33772.0
1.56500 41136.0
1.57500 57571.0
1.58500 84207.0
1.59500 124846.0
1.60500 169582.0
1.61500 208664.0
1.62500 236772.0
1.63500 246915.0
1.64500 250891.0
1.65500 250569.0
1.66500 250008.0
1.67500 241194.0
1.68500 220148.0
1.69500 187299.0
1.70500 147956.0
1.71500 113734.0
1.72500 85510.0
1.73500 64024.0
1.74500 48347.0
1.75500 34904.0
1.76500 26169.0
1.77500 21550.0
1.78500 22348.0
1.79500 24881.0
1.80500 25750.0
1.81500 24101.0
1.82500 20279.0
1.83500 16806.0
1.84500 14310.0
1.85500 12606.0
1.86500 10566.0
1.87500 8610.0
1.88500 7389.0
1.89500 7970.0
1.90500 10350.0
1.91500 12400.0
1.92500 12617.0
1.93500 10732.0
1.94500 8412.0
1.95500 6609.0
1.96500 5675.0
1.97500 5444.0
1.98500 4855.0
1.99500 4255.0
2.00500 4080.0
2.01500 4977.0
2.02500 6702.0
2.03500 8708.0
2.04500 9142.0
2.05500 7744.0
2.06500 5265.0
2.07500 3647.0
2.08500 3226.0
2.09500 3221.0
2.10500 3098.0
2.11500 2941.0
2.12500 3343.0
2.13500 4563.0
2.14500 6655.0
2.15500 8439.0
2.16500 9014.0
2.17500 7896.0
2.18500 5409.0
2.19500 3716.0
2.20500 3660.0
2.21500 4480.0
2.22500 4747.0
2.23500 4780.0
2.24500 6342.0
2.25500 9089.0
2.26500 14009.0
2.27500 20473.0
2.28500 26521.0
2.29500 28794.0
2.30500 24455.0
2.31500 20917.0
2.32500 32210.0
2.33500 67001.0
2.34500 123548.0
2.35500 167227.0
2.36500 175887.0
2.37500 142396.0
2.38500 91014.0
2.39500 50116.0
2.40500 32834.0
2.41500 32417.0
2.42500 33185.0
2.43500 28888.0
2.44500 23325.0
2.45500 20574.0
2.46500 21397.0
2.47500 20591.0
2.48500 15898.0
2.49500 10255.0
2.50500 6371.0
2.51500 4903.0
2.52500 4790.0
2.53500 4516.0
2.54500 4002.0
2.55500 3093.0
2.56500 2380.0
2.57500 2237.0
2.58500 2756.0
2.59500 3472.0
2.60500 4056.0
2.61500 3791.0
2.62500 2648.0
2.63500 2126.0
2.64500 1817.0
2.65500 1764.0
2.66500 1659.0
2.67500 1284.0
2.68500 1114.0
2.69500 1119.0
2.70500 1278.0
2.71500 1702.0
2.72500 2015.0
2.73500 1963.0
2.74500 1621.0
2.75500 1318.0
2.76500 961.0
2.77500 890.0
2.78500 826.0
2.79500 854.0
2.80500 661.0
2.81500 617.0
2.82500 619.0
2.83500 794.0
2.84500 1095.0
2.85500 1261.0
2.86500 1332.0
2.87500 991.0
2.88500 654.0
2.89500 515.0
2.90500 427.0
2.91500 386.0
2.92500 435.0
2.93500 390.0
2.94500 456.0
2.95500 511.0
2.96500 594.0
2.97500 734.0
2.98500 1036.0
2.99500 1836.0
3.00500 2706.0
3.01500 3582.0
3.02500 4313.0
3.03500 5238.0
3.04500 6306.0
3.05500 7801.0
3.06500 9093.0
3.07500 10395.0
3.08500 11926.0
3.09500 12235.0
3.10500 11402.0
3.11500 10055.0
3.12500 8523.0
3.13500 6717.0
3.14500 4840.0
3.15500 3848.0
3.16500 2886.0
3.17500 2253.0
3.18500 1836.0
3.19500 1521.0
3.20500 1563.0
3.21500 1937.0
3.22500 2385.0
3.23500 2606.0
3.24500 2428.0
3.25500 1957.0
3.26500 1519.0
3.27500 1225.0
3.28500 1002.0
3.29500 856.0
3.30500 794.0
3.31500 733.0
3.32500 908.0
3.33500 1364.0
3.34500 1940.0
3.35500 2455.0
3.36500 2897.0
3.37500 2991.0
3.38500 2460.0
3.39500 2002.0
3.40500 1635.0
3.41500 1769.0
3.42500 2418.0
3.43500 3192.0
3.44500 3618.0
3.45500 3280.0
3.46500 2633.0
3.47500 1808.0
3.48500 1251.0
3.49500 969.0
3.50500 971.0
3.51500 999.0
3.52500 1012.0
3.53500 916.0
3.54500 894.0
3.55500 802.0
3.56500 635.0
3.57500 585.0
3.58500 562.0
3.59500 484.0
3.60500 438.0
3.61500 327.0
3.62500 335.0
3.63500 363.0
3.64500 435.0
3.65500 466.0
3.66500 443.0
3.67500 440.0
3.68500 410.0
3.69500 342.0
3.70500 276.0
3.71500 260.0
3.72500 270.0
3.73500 326.0
3.74500 387.0
3.75500 479.0
3.76500 655.0
3.77500 715.0
3.78500 984.0
3.79500 1140.0
3.80500 1047.0
3.81500 1164.0
3.82500 1165.0
3.83500 1109.0
3.84500 1094.0
3.85500 1022.0
3.86500 818.0
3.87500 675.0
3.88500 548.0
3.89500 505.0
3.90500 442.0
3.91500 397.0
3.92500 406.0
3.93500 388.0
3.94500 373.0
3.95500 370.0
3.96500 381.0
3.97500 413.0
3.98500 360.0
3.99500 321.0
4.00500 309.0
4.01500 269.0
4.02500 279.0
4.03500 263.0
4.04500 264.0
4.05500 246.0
4.06500 276.0
4.07500 312.0
4.08500 274.0
4.09500 265.0
4.10500 297.0
4.11500 266.0
4.12500 231.0
4.13500 283.0
4.14500 265.0
4.15500 223.0
4.16500 218.0
4.17500 282.0
4.18500 301.0
4.19500 295.0
4.20500 283.0
4.21500 277.0
4.22500 277.0
4.23500 289.0
4.24500 297.0
4.25500 242.0
4.26500 156.0
4.27500 206.0
4.28500 197.0
4.29500 224.0
4.30500 248.0
4.31500 276.0
4.32500 247.0
4.33500 247.0
4.34500 200.0
4.35500 198.0
4.36500 156.0
4.37500 192.0
4.38500 189.0
4.39500 206.0
4.40500 227.0
4.41500 243.0
4.42500 376.0
4.43500 412.0
4.44500 473.0
4.45500 514.0
4.46500 515.0
4.47500 569.0
4.48500 708.0
4.49500 1040.0
4.50500 1636.0
4.51500 2379.0
4.52500 3493.0
4.53500 4464.0
4.54500 4857.0
4.55500 4765.0
4.56500 4119.0
4.57500 3208.0
4.58500 2488.0
4.59500 1806.0
4.60500 1325.0
4.61500 983.0
4.62500 686.0
4.63500 496.0
4.64500 395.0
4.65500 323.0
4.66500 367.0
4.67500 388.0
4.68500 362.0
4.69500 338.0
4.70500 325.0
4.71500 269.0
4.72500 213.0
4.73500 179.0
4.74500 205.0
4.75500 164.0
4.76500 150.0
4.77500 155.0
4.78500 183.0
4.79500 159.0
4.80500 168.0
4.81500 176.0
4.82500 141.0
4.83500 166.0
4.84500 185.0
4.85500 154.0
4.86500 155.0
4.87500 176.0
4.88500 157.0
4.89500 174.0
4.90500 177.0
4.91500 180.0
4.92500 165.0
4.93500 182.0
4.94500 160.0
4.95500 148.0
4.96500 139.0
4.97500 139.0
4.98500 180.0
4.99500 134.0
5.00500 134.0
5.01500 162.0
5.02500 198.0
5.03500 212.0
5.04500 282.0
5.05500 261.0
5.06500 273.0
5.07500 333.0
5.08500 377.0
5.09500 410.0
5.10500 356.0
5.11500 352.0
5.12500 389.0
5.13500 399.0
5.14500 396.0
5.15500 337.0
5.16500 373.0
5.17500 347.0
5.18500 413.0
5.19500 487.0
5.20500 558.0
5.21500 524.0
5.22500 469.0
5.23500 546.0
5.24500 597.0
5.25500 554.0
5.26500 484.0
5.27500 498.0
5.28500 554.0
5.29500 509.0
5.30500 398.0
5.31500 336.0
5.32500 288.0
5.33500 308.0
5.34500 316.0
5.35500 219.0
5.36500 217.0
5.37500 219.0
5.38500 273.0
5.39500 243.0
5.40500 193.0
5.41500 197.0
5.42500 188.0
5.43500 179.0
5.44500 135.0
5.45500 174.0
5.46500 150.0
5.47500 129.0
5.48500 152.0
5.49500 161.0
5.50500 139.0
5.51500 143.0
5.52500 160.0
5.53500 195.0
5.54500 164.0
5.55500 162.0
5.56500 154.0
5.57500 181.0
5.58500 198.0
5.59500 276.0
5.60500 313.0
5.61500 298.0
5.62500 253.0
5.63500 267.0
5.64500 250.0
5.65500 267.0
5.66500 271.0
5.67500 281.0
5.68500 235.0
5.69500 287.0
5.70500 242.0
5.71500 192.0
5.72500 193.0
5.73500 166.0
5.74500 133.0
5.75500 96.0
5.76500 99.0
5.77500 93.0
5.78500 100.0
5.79500 102.0
5.80500 97.0
5.81500 115.0
5.82500 104.0
5.83500 109.0
5.84500 97.0
5.85500 106.0
5.86500 119.0
5.87500 95.0
5.88500 78.0
5.89500 97.0
5.90500 92.0
5.91500 80.0
5.92500 72.0
5.93500 78.0
5.94500 97.0
5.95500 89.0
5.96500 108.0
5.97500 103.0
5.98500 108.0
5.99500 99.0
6.00500 105.0
6.01500 99.0
6.02500 112.0
6.03500 92.0
6.04500 79.0
6.05500 71.0
6.06500 78.0
6.07500 65.0
6.08500 74.0
6.09500 75.0
6.10500 97.0
6.11500 87.0
6.12500 69.0
6.13500 83.0
6.14500 71.0
6.15500 83.0
6.16500 89.0
6.17500 74.0
6.18500 71.0
6.19500 61.0
6.20500 47.0
6.21500 76.0
6.22500 76.0
6.23500 59.0
6.24500 74.0
6.25500 63.0
6.26500 51.0
6.27500 86.0
6.28500 95.0
6.29500 79.0
6.30500 80.0
6.31500 63.0
6.32500 69.0
6.33500 72.0
6.34500 63.0
6.35500 68.0
6.36500 72.0
6.37500 71.0
6.38500 62.0
6.39500 58.0
6.40500 69.0
6.41500 84.0
6.42500 69.0
6.43500 72.0
6.44500 72.0
6.45500 68.0
6.46500 59.0
6.47500 84.0
6.48500 84.0
6.49500 63.0
6.50500 57.0
6.51500 82.0
6.52500 79.0
6.53500 73.0
6.54500 86.0
6.55500 68.0
6.56500 75.0
6.57500 73.0
6.58500 96.0
6.59500 87.0
6.60500 79.0
6.61500 95.0
6.62500 75.0
6.63500 99.0
6.64500 68.0
6.65500 96.0
6.66500 97.0
6.67500 106.0
6.68500 122.0
6.69500 89.0
6.70500 108.0
6.71500 101.0
6.72500 127.0
6.73500 123.0
6.74500 107.0
6.75500 165.0
6.76500 143.0
6.77500 128.0
6.78500 109.0
6.79500 131.0
6.80500 124.0
6.81500 110.0
6.82500 123.0
6.83500 117.0
6.84500 109.0
6.85500 104.0
6.86500 114.0
6.87500 74.0
6.88500 126.0
6.89500 130.0
6.90500 114.0
6.91500 106.0
6.92500 96.0
6.93500 60.0
6.94500 67.0
6.95500 77.0
6.96500 83.0
6.97500 79.0
6.98500 48.0
6.99500 45.0
7.00500 54.0
7.01500 63.0
7.02500 70.0
7.03500 79.0
7.04500 67.0
7.05500 82.0
7.06500 78.0
7.07500 77.0
7.08500 86.0
7.09500 91.0
7.10500 63.0
7.11500 69.0
7.12500 60.0
7.13500 68.0
7.14500 91.0
7.15500 98.0
7.16500 90.0
7.17500 93.0
7.18500 94.0
7.19500 93.0
7.20500 71.0
7.21500 79.0
7.22500 66.0
7.23500 81.0
7.24500 74.0
7.25500 85.0
7.26500 61.0
7.27500 78.0
7.28500 78.0
7.29500 81.0
7.30500 86.0
7.31500 75.0
7.32500 84.0
7.33500 71.0
7.34500 76.0
7.35500 94.0
7.36500 84.0
7.37500 83.0
7.38500 74.0
7.39500 76.0
7.40500 89.0
7.41500 94.0
7.42500 76.0
7.43500 60.0
7.44500 54.0
7.45500 63.0
7.46500 69.0
7.47500 71.0
7.48500 90.0
7.49500 74.0
7.50500 90.0
7.51500 94.0
7.52500 94.0
7.53500 108.0
7.54500 133.0
7.55500 145.0
7.56500 129.0
7.57500 116.0
7.58500 98.0
7.59500 97.0
7.60500 108.0
7.61500 83.0
7.62500 106.0
7.63500 93.0
7.64500 103.0
7.65500 117.0
7.66500 113.0
7.67500 88.0
7.68500 107.0
7.69500 90.0
7.70500 90.0
7.71500 101.0
7.72500 78.0
7.73500 84.0
7.74500 80.0
7.75500 87.0
7.76500 82.0
7.77500 84.0
7.78500 92.0
7.79500 87.0
7.80500 85.0
7.81500 107.0
7.82500 108.0
7.83500 80.0
7.84500 83.0
7.85500 86.0
7.86500 99.0
7.87500 109.0
7.88500 75.0
7.89500 81.0
7.90500 72.0
7.91500 95.0
7.92500 91.0
7.93500 74.0
7.94500 77.0
7.95500 77.0
7.96500 92.0
7.97500 71.0
7.98500 66.0
7.99500 55.0
8.00500 68.0
8.01500 52.0
8.02500 59.0
8.03500 49.0
8.04500 68.0
8.05500 50.0
8.06500 70.0
8.07500 66.0
8.08500 60.0
8.09500 84.0
8.10500 57.0
8.11500 82.0
8.12500 78.0
8.13500 82.0
8.14500 66.0
8.15500 75.0
8.16500 87.0
8.17500 56.0
8.18500 75.0
8.19500 97.0
8.20500 89.0
8.21500 96.0
8.22500 87.0
8.23500 79.0
8.24500 72.0
8.25500 71.0
8.26500 67.0
8.27500 46.0
8.28500 73.0
8.29500 61.0
8.30500 58.0
8.31500 76.0
8.32500 68.0
8.33500 72.0
8.34500 89.0
8.35500 66.0
8.36500 84.0
8.37500 81.0
8.38500 104.0
8.39500 69.0
8.40500 70.0
8.41500 81.0
8.42500 70.0
8.43500 67.0
8.44500 71.0
8.45500 70.0
8.46500 63.0
8.47500 62.0
8.48500 57.0
8.49500 60.0
8.50500 77.0
8.51500 75.0
8.52500 103.0
8.53500 105.0
8.54500 81.0
8.55500 93.0
8.56500 68.0
8.57500 87.0
8.58500 71.0
8.59500 70.0
8.60500 75.0
8.61500 61.0
8.62500 87.0
8.63500 106.0
8.64500 86.0
8.65500 128.0
8.66500 90.0
8.67500 88.0
8.68500 84.0
8.69500 119.0
8.70500 89.0
8.71500 99.0
8.72500 89.0
8.73500 105.0
8.74500 127.0
8.75500 113.0
8.76500 137.0
8.77500 95.0
8.78500 88.0
8.79500 80.0
8.80500 69.0
8.81500 75.0
8.82500 57.0
8.83500 74.0
8.84500 68.0
8.85500 73.0
8.86500 67.0
8.87500 79.0
8.88500 83.0
8.89500 76.0
8.90500 72.0
8.91500 61.0
8.92500 76.0
8.93500 71.0
8.94500 73.0
8.95500 79.0
8.96500 68.0
8.97500 76.0
8.98500 67.0
8.99500 73.0
9.00500 88.0
9.01500 79.0
9.02500 84.0
9.03500 71.0
9.04500 69.0
9.05500 72.0
9.06500 63.0
9.07500 63.0
9.08500 70.0
9.09500 69.0
9.10500 85.0
9.11500 74.0
9.12500 47.0
9.13500 72.0
9.14500 66.0
9.15500 66.0
9.16500 75.0
9.17500 73.0
9.18500 62.0
9.19500 78.0
9.20500 57.0
9.21500 75.0
9.22500 69.0
9.23500 60.0
9.24500 63.0
9.25500 82.0
9.26500 73.0
9.27500 64.0
9.28500 72.0
9.29500 69.0
9.30500 53.0
9.31500 55.0
9.32500 77.0
9.33500 81.0
9.34500 53.0
9.35500 50.0
9.36500 57.0
9.37500 62.0
9.38500 58.0
9.39500 76.0
9.40500 56.0
9.41500 75.0
9.42500 69.0
9.43500 71.0
9.44500 72.0
9.45500 63.0
9.46500 76.0
9.47500 76.0
9.48500 82.0
9.49500 76.0
9.50500 89.0
9.51500 62.0
9.52500 84.0
9.53500 67.0
9.54500 65.0
9.55500 60.0
9.56500 44.0
9.57500 44.0
9.58500 49.0
9.59500 52.0
9.60500 51.0
9.61500 55.0
9.62500 77.0
9.63500 61.0
9.64500 74.0
9.65500 68.0
9.66500 60.0
9.67500 78.0
9.68500 73.0
9.69500 64.0
9.70500 76.0
9.71500 77.0
9.72500 71.0
9.73500 59.0
9.74500 68.0
9.75500 68.0
9.76500 61.0
9.77500 65.0
9.78500 77.0
9.79500 62.0
9.80500 66.0
9.81500 71.0
9.82500 92.0
9.83500 67.0
9.84500 61.0
9.85500 82.0
9.86500 84.0
9.87500 85.0
9.88500 66.0
9.89500 67.0
9.90500 94.0
9.91500 95.0
9.92500 72.0
9.93500 94.0
9.94500 69.0
9.95500 92.0
9.96500 85.0
9.97500 81.0
9.98500 59.0
9.99500 75.0
10.00500 66.0
10.01500 74.0
10.02500 87.0
10.03500 69.0
10.04500 53.0
10.05500 59.0
10.06500 75.0
10.07500 75.0
10.08500 93.0
10.09500 94.0
10.10500 73.0
10.11500 90.0
10.12500 81.0
10.13500 74.0
10.14500 93.0
10.15500 72.0
10.16500 78.0
10.17500 77.0
10.18500 55.0
10.19500 64.0
10.20500 60.0
10.21500 63.0
10.22500 51.0
10.23500 53.0
10.24500 49.0
10.25500 70.0
10.26500 63.0
10.27500 69.0
10.28500 50.0
10.29500 71.0
10.30500 105.0
10.31500 68.0
