0.00500 36774084.0
0.01500 43650860.0
0.02500 37290236.0
0.03500 25320940.0
0.04500 15134962.0
0.05500 8923937.0
0.06500 6190703.0
0.07500 5680310.0
0.08500 6149938.0
0.09500 6880822.0
0.10500 7580686.0
0.11500 8335325.0
0.12500 9125907.0
0.13500 9848727.0
0.14500 10514270.0
0.15500 11200555.0
0.16500 11906416.0
0.17500 12562467.0
0.18500 13147946.0
0.19500 13811057.0
0.20500 14457138.0
0.21500 15039860.0
0.22500 15691897.0
0.23500 16287372.0
0.24500 16932772.0
0.25500 17313826.0
0.26500 17885400.0
0.27500 18378314.0
0.28500 18876532.0
0.29500 19350552.0
0.30500 19761036.0
0.31500 20236452.0
0.32500 20647552.0
0.33500 21221044.0
0.34500 21678072.0
0.35500 22068052.0
0.36500 22581768.0
0.37500 22869916.0
0.38500 23270900.0
0.39500 23581000.0
0.40500 23986184.0
0.41500 24135184.0
0.42500 24484634.0
0.43500 24759588.0
0.44500 24838260.0
0.45500 25382016.0
0.46500 25696112.0
0.47500 25857366.0
0.48500 26168420.0
0.49500 26233832.0
0.50500 26309140.0
0.51500 26458716.0
0.52500 26513904.0
0.53500 26420140.0
0.54500 26380676.0
0.55500 26327976.0
0.56500 26375612.0
0.57500 26269498.0
0.58500 26174686.0
0.59500 26057646.0
0.60500 25775484.0
0.61500 25528616.0
0.62500 25250840.0
0.63500 24876592.0
0.64500 24498774.0
0.65500 23970654.0
0.66500 23441384.0
0.67500 22807920.0
0.68500 22036440.0
0.69500 21294516.0
0.70500 20358928.0
0.71500 19218704.0
0.72500 17948526.0
0.73500 16489438.0
0.74500 15106274.0
0.75500 13666024.0
0.76500 12154978.0
0.77500 10671983.0
0.78500 9270691.0
0.79500 8015578.0
0.80500 6925619.0
0.81500 5961221.0
0.82500 5160082.0
0.83500 4453159.0
0.84500 3835591.0
0.85500 3327594.0
0.86500 2868544.0
0.87500 2501228.0
0.88500 2189108.0
0.89500 1901125.0
0.90500 1652311.0
0.91500 1447697.0
0.92500 1269530.0
0.93500 1127344.0
0.94500 991549.0
0.95500 881752.0
0.96500 775897.0
0.97500 686543.0
0.98500 616871.0
0.99500 546757.0
1.00500 489423.0
1.01500 436291.0
1.02500 388914.0
1.03500 347031.0
1.04500 309065.0
1.05500 277218.0
1.06500 247910.0
1.07500 220744.0
1.08500 198385.0
1.09500 178296.0
1.10500 159532.0
1.11500 143151.0
1.12500 126735.0
1.13500 113977.0
1.14500 102427.0
1.15500 92245.0
1.16500 82604.0
1.17500 74494.0
1.18500 67233.0
1.19500 60373.0
1.20500 54506.0
1.21500 49536.0
1.22500 45040.0
1.23500 40786.0
1.24500 37025.0
1.25500 33403.0
1.26500 30006.0
1.27500 27372.0
1.28500 25184.0
1.29500 22795.0
1.30500 20845.0
1.31500 18592.0
1.32500 17091.0
1.33500 15473.0
1.34500 14075.0
1.35500 12768.0
1.36500 11722.0
1.37500 10453.0
1.38500 9676.0
1.39500 8996.0
1.40500 8035.0
1.41500 7580.0
1.42500 6850.0
1.43500 6595.0
1.44500 5816.0
1.45500 5506.0
1.46500 5316.0
1.47500 4963.0
1.48500 4725.0
1.49500 4283.0
1.50500 4024.0
1.51500 3785.0
1.52500 3548.0
1.53500 3414.0
1.54500 3193.0
1.55500 2992.0
1.56500 2912.0
1.57500 2734.0
1.58500 2542.0
1.59500 2509.0
1.60500 2403.0
1.61500 2152.0
1.62500 2156.0
1.63500 2096.0
1.64500 2000.0
1.65500 1870.0
1.66500 1760.0
1.67500 1743.0
1.68500 1644.0
1.69500 1610.0
1.70500 1547.0
1.71500 1494.0
1.72500 1495.0
1.73500 1453.0
1.74500 1439.0
1.75500 1402.0
1.76500 1335.0
1.77500 1260.0
1.78500 1209.0
1.79500 1174.0
1.80500 1065.0
1.81500 1129.0
1.82500 1091.0
1.83500 1079.0
1.84500 1023.0
1.85500 979.0
1.86500 1000.0
1.87500 960.0
1.88500 888.0
1.89500 940.0
1.90500 889.0
1.91500 872.0
1.92500 816.0
1.93500 845.0
1.94500 785.0
1.95500 779.0
1.96500 738.0
1.97500 775.0
1.98500 701.0
1.99500 608.0
2.00500 648.0
2.01500 630.0
2.02500 654.0
2.03500 538.0
2.04500 557.0
2.05500 562.0
2.06500 537.0
2.07500 544.0
2.08500 554.0
2.09500 518.0
2.10500 490.0
2.11500 498.0
2.12500 519.0
2.13500 485.0
2.14500 488.0
2.15500 472.0
2.16500 413.0
2.17500 373.0
2.18500 389.0
2.19500 425.0
2.20500 424.0
2.21500 450.0
2.22500 432.0
2.23500 413.0
2.24500 405.0
2.25500 433.0
2.26500 306.0
2.27500 342.0
2.28500 341.0
2.29500 380.0
2.30500 372.0
2.31500 376.0
2.32500 355.0
2.33500 379.0
2.34500 366.0
2.35500 372.0
2.36500 387.0
2.37500 347.0
2.38500 328.0
2.39500 338.0
2.40500 302.0
2.41500 332.0
2.42500 307.0
2.43500 291.0
2.44500 318.0
2.45500 342.0
2.46500 340.0
2.47500 345.0
2.48500 329.0
2.49500 352.0
2.50500 312.0
2.51500 327.0
2.52500 279.0
2.53500 272.0
2.54500 281.0
2.55500 290.0
2.56500 258.0
2.57500 289.0
2.58500 297.0
2.59500 288.0
2.60500 274.0
2.61500 232.0
2.62500 258.0
2.63500 234.0
2.64500 244.0
2.65500 226.0
2.66500 244.0
2.67500 275.0
2.68500 247.0
2.69500 231.0
2.70500 234.0
2.71500 225.0
2.72500 249.0
2.73500 230.0
2.74500 276.0
2.75500 264.0
2.76500 271.0
2.77500 289.0
2.78500 339.0
2.79500 273.0
2.80500 253.0
2.81500 264.0
2.82500 245.0
2.83500 222.0
2.84500 266.0
2.85500 250.0
2.86500 263.0
2.87500 247.0
2.88500 205.0
2.89500 230.0
2.90500 254.0
2.91500 241.0
2.92500 239.0
2.93500 230.0
2.94500 254.0
2.95500 245.0
2.96500 257.0
2.97500 226.0
2.98500 216.0
2.99500 264.0
