0.00500 36732180.0
0.01500 39559272.0
0.02500 30600850.0
0.03500 19267136.0
0.04500 10776094.0
0.05500 6391451.0
0.06500 5087803.0
0.07500 5210455.0
0.08500 5830400.0
0.09500 6537198.0
0.10500 7173946.0
0.11500 7930464.0
0.12500 8562472.0
0.13500 9190796.0
0.14500 9907509.0
0.15500 10435358.0
0.16500 11153015.0
0.17500 11757233.0
0.18500 12397633.0
0.19500 13103157.0
0.20500 13573854.0
0.21500 14278441.0
0.22500 14815990.0
0.23500 15383693.0
0.24500 16097067.0
0.25500 16463043.0
0.26500 17014262.0
0.27500 17623860.0
0.28500 18028792.0
0.29500 18595152.0
0.30500 18839200.0
0.31500 19242664.0
0.32500 19886156.0
0.33500 20234856.0
0.34500 20942624.0
0.35500 21221136.0
0.36500 21571882.0
0.37500 22072098.0
0.38500 22402810.0
0.39500 22970248.0
0.40500 23264624.0
0.41500 23392924.0
0.42500 23815932.0
0.43500 24050600.0
0.44500 24526956.0
0.45500 24786222.0
0.46500 24976636.0
0.47500 25427736.0
0.48500 25709144.0
0.49500 26013192.0
0.50500 26304796.0
0.51500 26176172.0
0.52500 26417892.0
0.53500 26672356.0
0.54500 26809314.0
0.55500 26863436.0
0.56500 26773018.0
0.57500 27084082.0
0.58500 27119810.0
0.59500 27187894.0
0.60500 27205924.0
0.61500 26751208.0
0.62500 26598186.0
0.63500 26393980.0
0.64500 25684224.0
0.65500 24918376.0
0.66500 23428700.0
0.67500 21502834.0
0.68500 19089930.0
0.69500 16264853.0
0.70500 13744738.0
0.71500 11541909.0
0.72500 9746942.0
0.73500 8431263.0
0.74500 7292408.0
0.75500 6469773.0
0.76500 5724859.0
0.77500 5109998.0
0.78500 4606004.0
0.79500 4137791.0
0.80500 3755721.0
0.81500 3408211.0
0.82500 3085395.0
0.83500 2819278.0
0.84500 2584815.0
0.85500 2368385.0
0.86500 2194590.0
0.87500 2002388.0
0.88500 1841373.0
0.89500 1696606.0
0.90500 1563795.0
0.91500 1443873.0
0.92500 1330678.0
0.93500 1233120.0
0.94500 1140731.0
0.95500 1055435.0
0.96500 984456.0
0.97500 911603.0
0.98500 845043.0
0.99500 785319.0
1.00500 728906.0
1.01500 675584.0
1.02500 623923.0
1.03500 583881.0
1.04500 549400.0
1.05500 508319.0
1.06500 467646.0
1.07500 429617.0
1.08500 403163.0
1.09500 378511.0
1.10500 353980.0
1.11500 331896.0
1.12500 318144.0
1.13500 308091.0
1.14500 293718.0
1.15500 274935.0
1.16500 249722.0
1.17500 223627.0
1.18500 201743.0
1.19500 184106.0
1.20500 169286.0
1.21500 155654.0
1.22500 140892.0
1.23500 128325.0
1.24500 119177.0
1.25500 110450.0
1.26500 100951.0
1.27500 91947.0
1.28500 86061.0
1.29500 80666.0
1.30500 73686.0
1.31500 67642.0
1.32500 61648.0
1.33500 56714.0
1.34500 52218.0
1.35500 47561.0
1.36500 43625.0
1.37500 39859.0
1.38500 36799.0
1.39500 34227.0
1.40500 31227.0
1.41500 28187.0
1.42500 26210.0
1.43500 24009.0
1.44500 21545.0
1.45500 20184.0
1.46500 17923.0
1.47500 16245.0
1.48500 14531.0
1.49500 13338.0
1.50500 12154.0
1.51500 11155.0
1.52500 10866.0
1.53500 10244.0
1.54500 9219.0
1.55500 8728.0
1.56500 8272.0
1.57500 7770.0
1.58500 7611.0
1.59500 7545.0
1.60500 7438.0
1.61500 7598.0
1.62500 7546.0
1.63500 7964.0
1.64500 8051.0
1.65500 8628.0
1.66500 9244.0
1.67500 9792.0
1.68500 10562.0
1.69500 11666.0
1.70500 12118.0
1.71500 13056.0
1.72500 13835.0
1.73500 15200.0
1.74500 16399.0
1.75500 18666.0
1.76500 20468.0
1.77500 22821.0
1.78500 26305.0
1.79500 31162.0
1.80500 35955.0
1.81500 41428.0
1.82500 47601.0
1.83500 56529.0
1.84500 67608.0
1.85500 82810.0
1.86500 106317.0
1.87500 142430.0
1.88500 194213.0
1.89500 272020.0
1.90500 396479.0
1.91500 611536.0
1.92500 1103708.0
1.93500 2283518.0
1.94500 4628219.0
1.95500 7730439.0
1.96500 9517865.0
1.97500 8767899.0
1.98500 5862086.0
1.99500 2999850.0
2.00500 1588602.0
2.01500 987739.0
2.02500 679016.0
2.03500 500088.0
2.04500 389612.0
2.05500 312416.0
2.06500 262823.0
2.07500 223040.0
2.08500 189254.0
2.09500 162056.0
2.10500 141281.0
2.11500 122683.0
2.12500 106697.0
2.13500 95206.0
2.14500 85490.0
2.15500 76864.0
2.16500 69386.0
2.17500 62553.0
2.18500 57148.0
2.19500 51684.0
2.20500 47260.0
2.21500 42978.0
2.22500 39152.0
2.23500 36123.0
2.24500 33208.0
2.25500 31546.0
2.26500 29378.0
2.27500 27993.0
2.28500 25954.0
2.29500 24771.0
2.30500 23232.0
2.31500 21795.0
2.32500 20990.0
2.33500 19854.0
2.34500 19092.0
2.35500 17996.0
2.36500 16892.0
2.37500 15864.0
2.38500 14993.0
2.39500 14257.0
2.40500 13242.0
2.41500 13081.0
2.42500 12361.0
2.43500 11968.0
2.44500 11138.0
2.45500 10305.0
2.46500 9803.0
2.47500 9309.0
2.48500 8991.0
2.49500 8449.0
2.50500 7851.0
2.51500 7350.0
2.52500 7231.0
2.53500 7013.0
2.54500 6568.0
2.55500 6136.0
2.56500 5921.0
2.57500 5630.0
2.58500 5249.0
2.59500 4962.0
2.60500 4799.0
2.61500 4577.0
2.62500 4453.0
2.63500 4248.0
2.64500 4055.0
2.65500 3767.0
2.66500 3515.0
2.67500 3493.0
2.68500 3120.0
2.69500 3098.0
2.70500 2868.0
2.71500 2784.0
2.72500 2518.0
2.73500 2459.0
2.74500 2378.0
2.75500 2356.0
2.76500 2211.0
2.77500 2028.0
2.78500 1836.0
2.79500 1741.0
2.80500 1640.0
2.81500 1657.0
2.82500 1515.0
2.83500 1437.0
2.84500 1172.0
2.85500 1107.0
2.86500 874.0
2.87500 878.0
2.88500 869.0
2.89500 846.0
2.90500 839.0
2.91500 757.0
2.92500 660.0
2.93500 686.0
2.94500 709.0
2.95500 657.0
2.96500 656.0
2.97500 566.0
2.98500 607.0
2.99500 604.0
3.00500 536.0
3.01500 545.0
3.02500 509.0
3.03500 532.0
3.04500 501.0
3.05500 461.0
3.06500 484.0
3.07500 476.0
3.08500 416.0
3.09500 422.0
3.10500 422.0
3.11500 428.0
3.12500 417.0
3.13500 367.0
3.14500 393.0
3.15500 341.0
3.16500 326.0
3.17500 304.0
3.18500 287.0
3.19500 259.0
3.20500 270.0
3.21500 278.0
3.22500 307.0
3.23500 287.0
3.24500 255.0
3.25500 291.0
3.26500 259.0
3.27500 289.0
3.28500 261.0
3.29500 252.0
3.30500 279.0
3.31500 299.0
3.32500 293.0
3.33500 233.0
3.34500 249.0
3.35500 256.0
3.36500 220.0
3.37500 239.0
3.38500 256.0
3.39500 256.0
3.40500 237.0
3.41500 248.0
3.42500 268.0
3.43500 255.0
3.44500 271.0
3.45500 226.0
3.46500 237.0
3.47500 249.0
3.48500 245.0
3.49500 247.0
3.50500 236.0
3.51500 225.0
3.52500 244.0
3.53500 237.0
3.54500 296.0
3.55500 272.0
3.56500 239.0
3.57500 268.0
3.58500 308.0
3.59500 280.0
3.60500 305.0
3.61500 307.0
3.62500 289.0
3.63500 323.0
3.64500 354.0
3.65500 391.0
3.66500 518.0
3.67500 589.0
3.68500 746.0
3.69500 1029.0
3.70500 1954.0
3.71500 4571.0
3.72500 10494.0
3.73500 19647.0
3.74500 25905.0
3.75500 25050.0
3.76500 16008.0
3.77500 7856.0
3.78500 4330.0
3.79500 2715.0
3.80500 2006.0
3.81500 1506.0
3.82500 1312.0
3.83500 1019.0
3.84500 939.0
3.85500 888.0
3.86500 801.0
3.87500 739.0
3.88500 663.0
3.89500 675.0
3.90500 600.0
3.91500 642.0
3.92500 618.0
3.93500 487.0
3.94500 471.0
3.95500 534.0
3.96500 492.0
3.97500 473.0
3.98500 400.0
3.99500 415.0
4.00500 390.0
4.01500 371.0
4.02500 365.0
4.03500 359.0
4.04500 354.0
4.05500 394.0
4.06500 360.0
4.07500 344.0
4.08500 341.0
4.09500 363.0
4.10500 345.0
4.11500 343.0
4.12500 352.0
4.13500 301.0
4.14500 310.0
4.15500 330.0
4.16500 323.0
4.17500 293.0
4.18500 321.0
4.19500 364.0
4.20500 323.0
4.21500 340.0
4.22500 313.0
4.23500 317.0
4.24500 321.0
4.25500 324.0
4.26500 357.0
4.27500 341.0
4.28500 298.0
4.29500 349.0
4.30500 355.0
4.31500 344.0
4.32500 339.0
4.33500 346.0
4.34500 366.0
4.35500 350.0
4.36500 330.0
4.37500 364.0
4.38500 368.0
4.39500 304.0
4.40500 335.0
4.41500 350.0
4.42500 345.0
4.43500 335.0
4.44500 331.0
4.45500 326.0
4.46500 309.0
4.47500 361.0
4.48500 378.0
4.49500 359.0
4.50500 331.0
4.51500 331.0
4.52500 305.0
4.53500 282.0
4.54500 357.0
4.55500 368.0
4.56500 346.0
4.57500 349.0
4.58500 278.0
4.59500 289.0
4.60500 326.0
4.61500 316.0
4.62500 325.0
4.63500 269.0
4.64500 260.0
4.65500 179.0
4.66500 236.0
4.67500 232.0
4.68500 284.0
4.69500 264.0
4.70500 267.0
4.71500 252.0
4.72500 295.0
4.73500 275.0
4.74500 261.0
4.75500 295.0
4.76500 267.0
4.77500 303.0
4.78500 276.0
4.79500 284.0
4.80500 262.0
4.81500 243.0
4.82500 230.0
4.83500 263.0
4.84500 294.0
4.85500 236.0
4.86500 244.0
4.87500 263.0
4.88500 239.0
4.89500 238.0
4.90500 262.0
4.91500 277.0
4.92500 224.0
4.93500 257.0
4.94500 247.0
4.95500 237.0
4.96500 231.0
4.97500 269.0
4.98500 223.0
4.99500 228.0
5.00500 183.0
5.01500 243.0
5.02500 220.0
5.03500 210.0
5.04500 198.0
5.05500 203.0
5.06500 202.0
5.07500 206.0
5.08500 199.0
5.09500 198.0
5.10500 193.0
5.11500 183.0
5.12500 183.0
5.13500 178.0
5.14500 159.0
5.15500 194.0
5.16500 221.0
5.17500 195.0
5.18500 166.0
5.19500 161.0
5.20500 192.0
5.21500 161.0
5.22500 172.0
5.23500 150.0
5.24500 164.0
5.25500 162.0
5.26500 180.0
5.27500 188.0
5.28500 162.0
5.29500 144.0
5.30500 182.0
5.31500 181.0
5.32500 172.0
5.33500 196.0
5.34500 183.0
5.35500 170.0
5.36500 149.0
5.37500 157.0
5.38500 170.0
5.39500 187.0
5.40500 173.0
5.41500 177.0
5.42500 169.0
5.43500 208.0
5.44500 169.0
5.45500 183.0
5.46500 198.0
5.47500 233.0
5.48500 198.0
5.49500 213.0
5.50500 252.0
5.51500 321.0
5.52500 571.0
5.53500 1239.0
5.54500 2611.0
5.55500 5074.0
5.56500 7014.0
5.57500 7502.0
5.58500 5885.0
5.59500 3892.0
5.60500 2349.0
5.61500 1570.0
5.62500 1103.0
5.63500 779.0
5.64500 610.0
5.65500 428.0
5.66500 367.0
5.67500 349.0
5.68500 328.0
5.69500 264.0
5.70500 229.0
5.71500 213.0
5.72500 211.0
5.73500 183.0
5.74500 201.0
5.75500 155.0
5.76500 152.0
5.77500 185.0
5.78500 147.0
5.79500 120.0
5.80500 137.0
5.81500 128.0
5.82500 139.0
5.83500 123.0
5.84500 120.0
5.85500 127.0
5.86500 131.0
5.87500 142.0
5.88500 160.0
5.89500 126.0
5.90500 126.0
5.91500 137.0
5.92500 118.0
5.93500 85.0
5.94500 77.0
5.95500 122.0
5.96500 102.0
5.97500 86.0
5.98500 100.0
5.99500 92.0
6.00500 96.0
6.01500 114.0
6.02500 112.0
6.03500 84.0
6.04500 109.0
6.05500 93.0
6.06500 100.0
6.07500 87.0
6.08500 105.0
6.09500 91.0
6.10500 102.0
6.11500 86.0
6.12500 87.0
6.13500 90.0
6.14500 101.0
6.15500 126.0
6.16500 98.0
6.17500 92.0
6.18500 100.0
6.19500 78.0
6.20500 72.0
6.21500 82.0
6.22500 106.0
6.23500 149.0
6.24500 117.0
6.25500 96.0
6.26500 53.0
6.27500 78.0
6.28500 78.0
6.29500 71.0
6.30500 72.0
6.31500 60.0
6.32500 78.0
6.33500 84.0
6.34500 83.0
6.35500 83.0
6.36500 62.0
6.37500 72.0
6.38500 53.0
6.39500 51.0
6.40500 72.0
6.41500 62.0
6.42500 63.0
6.43500 75.0
6.44500 69.0
6.45500 80.0
6.46500 99.0
6.47500 100.0
6.48500 98.0
6.49500 86.0
6.50500 115.0
6.51500 84.0
6.52500 83.0
6.53500 97.0
6.54500 97.0
6.55500 101.0
6.56500 126.0
6.57500 122.0
6.58500 113.0
6.59500 83.0
6.60500 101.0
6.61500 90.0
6.62500 70.0
6.63500 95.0
6.64500 68.0
6.65500 69.0
6.66500 48.0
6.67500 56.0
6.68500 55.0
6.69500 45.0
6.70500 60.0
6.71500 40.0
6.72500 72.0
6.73500 53.0
6.74500 74.0
6.75500 65.0
6.76500 69.0
6.77500 80.0
6.78500 100.0
6.79500 114.0
6.80500 118.0
6.81500 94.0
6.82500 86.0
6.83500 71.0
6.84500 96.0
6.85500 83.0
6.86500 102.0
6.87500 91.0
6.88500 78.0
6.89500 103.0
6.90500 105.0
6.91500 89.0
6.92500 72.0
6.93500 64.0
6.94500 51.0
6.95500 43.0
6.96500 39.0
6.97500 30.0
6.98500 36.0
6.99500 71.0
7.00500 52.0
7.01500 57.0
7.02500 41.0
7.03500 37.0
7.04500 42.0
7.05500 54.0
7.06500 46.0
7.07500 38.0
7.08500 46.0
7.09500 38.0
7.10500 50.0
7.11500 39.0
7.12500 75.0
7.13500 57.0
7.14500 61.0
7.15500 71.0
7.16500 53.0
7.17500 59.0
7.18500 67.0
7.19500 60.0
7.20500 52.0
7.21500 40.0
7.22500 45.0
7.23500 42.0
7.24500 29.0
7.25500 40.0
7.26500 38.0
7.27500 49.0
7.28500 46.0
7.29500 68.0
7.30500 49.0
7.31500 69.0
7.32500 65.0
7.33500 74.0
7.34500 67.0
7.35500 85.0
7.36500 168.0
7.37500 248.0
7.38500 341.0
7.39500 428.0
7.40500 491.0
7.41500 360.0
7.42500 266.0
7.43500 195.0
7.44500 214.0
7.45500 176.0
7.46500 142.0
7.47500 123.0
7.48500 105.0
7.49500 80.0
7.50500 73.0
7.51500 75.0
7.52500 67.0
7.53500 47.0
7.54500 43.0
7.55500 44.0
7.56500 59.0
7.57500 47.0
7.58500 54.0
7.59500 53.0
7.60500 62.0
7.61500 54.0
7.62500 68.0
7.63500 68.0
7.64500 60.0
7.65500 63.0
7.66500 60.0
7.67500 57.0
7.68500 56.0
7.69500 72.0
7.70500 76.0
7.71500 81.0
7.72500 68.0
7.73500 72.0
7.74500 84.0
7.75500 74.0
7.76500 94.0
7.77500 62.0
7.78500 64.0
7.79500 74.0
7.80500 78.0
7.81500 83.0
7.82500 77.0
7.83500 100.0
7.84500 48.0
7.85500 40.0
7.86500 60.0
7.87500 62.0
7.88500 71.0
7.89500 49.0
7.90500 39.0
7.91500 47.0
7.92500 52.0
7.93500 54.0
7.94500 54.0
7.95500 66.0
7.96500 71.0
7.97500 58.0
7.98500 51.0
7.99500 40.0
8.00500 43.0
8.01500 33.0
8.02500 27.0
8.03500 43.0
8.04500 43.0
8.05500 51.0
8.06500 60.0
8.07500 57.0
8.08500 69.0
8.09500 46.0
8.10500 42.0
8.11500 41.0
8.12500 41.0
8.13500 49.0
8.14500 40.0
8.15500 55.0
8.16500 46.0
8.17500 29.0
8.18500 27.0
8.19500 33.0
8.20500 23.0
8.21500 21.0
8.22500 38.0
8.23500 37.0
8.24500 50.0
8.25500 37.0
8.26500 39.0
8.27500 42.0
8.28500 47.0
8.29500 45.0
8.30500 45.0
8.31500 49.0
8.32500 66.0
8.33500 47.0
8.34500 46.0
8.35500 38.0
8.36500 28.0
8.37500 34.0
8.38500 37.0
8.39500 41.0
8.40500 41.0
8.41500 55.0
8.42500 57.0
8.43500 37.0
8.44500 48.0
8.45500 44.0
8.46500 37.0
8.47500 41.0
8.48500 22.0
8.49500 24.0
8.50500 42.0
8.51500 15.0
8.52500 36.0
8.53500 18.0
8.54500 22.0
8.55500 20.0
8.56500 25.0
8.57500 21.0
8.58500 24.0
8.59500 23.0
8.60500 29.0
8.61500 41.0
8.62500 28.0
8.63500 34.0
8.64500 18.0
8.65500 17.0
8.66500 29.0
8.67500 17.0
8.68500 26.0
8.69500 27.0
8.70500 28.0
8.71500 36.0
8.72500 29.0
8.73500 25.0
8.74500 28.0
8.75500 29.0
8.76500 46.0
8.77500 51.0
8.78500 64.0
8.79500 94.0
8.80500 38.0
8.81500 35.0
8.82500 45.0
8.83500 50.0
8.84500 31.0
8.85500 49.0
8.86500 52.0
8.87500 39.0
8.88500 70.0
8.89500 63.0
8.90500 43.0
8.91500 58.0
8.92500 35.0
8.93500 43.0
8.94500 51.0
8.95500 36.0
8.96500 44.0
8.97500 34.0
8.98500 42.0
8.99500 41.0
9.00500 51.0
9.01500 35.0
9.02500 41.0
9.03500 45.0
9.04500 46.0
9.05500 65.0
9.06500 55.0
9.07500 45.0
9.08500 48.0
9.09500 38.0
9.10500 44.0
9.11500 32.0
9.12500 58.0
9.13500 29.0
9.14500 58.0
9.15500 46.0
9.16500 35.0
9.17500 45.0
9.18500 60.0
9.19500 41.0
9.20500 43.0
9.21500 41.0
9.22500 47.0
9.23500 47.0
9.24500 55.0
9.25500 43.0
9.26500 43.0
9.27500 59.0
9.28500 58.0
9.29500 51.0
9.30500 56.0
9.31500 47.0
9.32500 34.0
9.33500 43.0
9.34500 34.0
9.35500 26.0
9.36500 36.0
9.37500 37.0
9.38500 49.0
9.39500 48.0
9.40500 32.0
9.41500 39.0
9.42500 32.0
9.43500 26.0
9.44500 26.0
9.45500 8.0
9.46500 29.0
9.47500 32.0
9.48500 27.0
9.49500 25.0
9.50500 16.0
9.51500 35.0
9.52500 34.0
9.53500 46.0
9.54500 37.0
9.55500 41.0
9.56500 31.0
9.57500 23.0
9.58500 49.0
9.59500 35.0
9.60500 33.0
9.61500 27.0
9.62500 52.0
9.63500 49.0
9.64500 43.0
9.65500 40.0
9.66500 25.0
9.67500 45.0
9.68500 32.0
9.69500 37.0
9.70500 35.0
9.71500 41.0
9.72500 39.0
9.73500 38.0
9.74500 34.0
9.75500 46.0
9.76500 44.0
9.77500 57.0
9.78500 47.0
9.79500 44.0
9.80500 62.0
9.81500 44.0
9.82500 40.0
9.83500 46.0
9.84500 45.0
9.85500 70.0
9.86500 57.0
9.87500 64.0
9.88500 65.0
9.89500 72.0
9.90500 53.0
9.91500 58.0
9.92500 74.0
9.93500 58.0
9.94500 66.0
9.95500 60.0
9.96500 59.0
9.97500 54.0
9.98500 54.0
9.99500 37.0
