0.800000 598302.3
0.810000 507798.8
0.820000 460090.9
0.830000 389376.0
0.840000 358920.8
0.850000 310360.4
0.860000 289874.6
0.870000 258877.4
0.880000 241867.2
0.890000 218649.8
0.900000 205027.8
0.910000 188182.4
0.920000 176988.5
0.930000 162489.6
0.940000 153820.8
0.950000 141451.2
0.960000 133225.0
0.970000 123692.9
0.980000 115804.1
0.990000 108900.0
1.000000 100362.2
1.010000 94864.0
1.020000 87675.2
1.030000 82713.8
1.040000 75515.0
1.050000 72199.7
1.060000 64923.0
1.070000 63001.0
1.080000 56216.4
1.090000 55601.6
1.100000 49907.6
1.110000 49506.3
1.120000 44901.6
1.130000 45326.4
1.140000 41127.8
1.150000 41697.6
1.160000 37558.4
1.170000 39085.3
1.180000 34782.3
1.190000 36634.0
1.200000 32472.0
1.210000 34262.0
1.220000 30485.2
1.230000 31612.8
1.240000 27788.9
1.250000 29790.8
1.260000 26114.6
1.270000 28089.8
1.280000 24025.0
1.290000 25696.1
1.300000 22650.3
1.310000 23593.0
1.320000 20449.0
1.330000 22022.6
1.340000 19126.9
1.350000 20764.8
1.360000 18523.2
1.370000 19099.2
1.380000 17476.8
1.390000 18741.6
1.400000 15775.4
1.410000 17662.4
1.420000 15725.2
1.430000 16538.0
1.440000 14592.6
1.450000 16179.8
1.460000 13618.9
1.470000 15104.4
1.480000 13248.0
1.490000 14280.3
1.500000 12701.3
1.510000 14113.4
1.520000 11881.0
1.530000 13294.1
1.540000 12100.0
1.550000 12836.9
1.560000 10878.5
1.570000 13179.0
1.580000 11342.3
1.590000 12276.6
1.600000 11427.6
1.610000 12499.2
1.620000 10733.0
1.630000 12232.4
1.640000 11004.0
1.650000 11924.6
1.660000 10774.4
1.670000 12365.4
1.680000 10629.6
1.690000 11794.0
1.700000 11151.4
1.710000 12144.0
1.720000 10201.0
1.730000 12232.4
1.740000 10983.0
1.750000 11924.6
1.760000 11321.0
1.770000 13456.0
1.780000 11599.3
1.790000 13087.4
1.800000 12476.9
1.810000 13876.8
1.820000 12746.4
1.830000 15252.3
1.840000 14232.5
1.850000 16002.3
1.860000 15951.7
1.870000 18441.6
1.880000 16384.0
1.890000 19965.7
1.900000 20764.8
1.910000 23994.0
1.920000 24649.0
1.930000 32041.0
1.940000 32616.4
1.950000 40723.2
1.960000 49106.6
1.970000 69379.6
1.980000 90781.7
1.990000 163539.4
2.000000 261121.0
2.010000 432174.8
2.020000 554578.1
2.030000 759686.6
2.040000 727267.8
2.050000 721650.3
2.060000 502255.7
2.070000 370637.4
2.080000 187142.8
2.090000 115328.2
2.100000 57456.1
2.110000 41861.2
2.120000 20391.8
2.130000 17397.6
2.140000 11130.3
2.150000 8742.3
2.160000 5565.2
2.170000 5329.0
2.180000 3600.0
2.190000 3025.0
2.200000 2323.2
2.210000 2190.2
2.220000 1490.0
2.230000 1451.6
2.240000 1149.2
2.250000 1049.8
2.260000 756.3
2.270000 823.7
2.280000 625.0
2.290000 595.4
2.300000 561.7
2.310000 519.8
2.320000 408.0
2.330000 445.2
2.340000 376.4
2.350000 324.0
2.360000 299.3
2.370000 327.6
2.380000 222.0
2.390000 243.4
2.400000 252.8
2.410000 237.2
2.420000 210.3
2.430000 198.8
2.440000 169.0
2.450000 176.9
2.460000 139.2
2.470000 182.3
2.480000 144.0
2.490000 148.8
2.500000 161.3
2.510000 196.0
2.520000 118.8
2.530000 156.3
2.540000 144.0
2.550000 132.3
2.560000 148.8
2.570000 136.9
2.580000 127.7
2.590000 141.6
2.600000 118.8
2.610000 127.7
2.620000 106.1
2.630000 102.0
2.640000 127.7
2.650000 102.0
2.660000 102.0
2.670000 121.0
2.680000 92.2
2.690000 106.1
2.700000 84.6
2.710000 104.0
2.720000 92.2
2.730000 79.2
2.740000 100.0
2.750000 90.3
2.760000 67.2
2.770000 114.5
2.780000 96.0
2.790000 96.0
2.800000 77.4
2.810000 108.2
2.820000 102.0
2.830000 106.1
2.840000 82.8
2.850000 75.7
2.860000 90.3
2.870000 96.0
2.880000 75.7
2.890000 98.0
2.900000 75.7
2.910000 74.0
2.920000 77.4
2.930000 88.4
2.940000 65.6
2.950000 79.2
2.960000 67.2
2.970000 59.3
2.980000 62.4
2.990000 67.2
3.000000 59.3
3.010000 74.0
3.020000 62.4
3.030000 75.7
3.040000 59.3
3.050000 59.3
3.060000 62.4
3.070000 57.8
3.080000 47.6
3.090000 59.3
3.100000 62.4
3.110000 44.9
3.120000 54.8
3.130000 47.6
3.140000 37.2
3.150000 43.6
3.160000 38.4
3.170000 46.2
3.180000 47.6
3.190000 43.6
3.200000 47.6
3.210000 33.6
3.220000 43.6
3.230000 41.0
3.240000 44.9
3.250000 42.3
3.260000 42.3
3.270000 41.0
3.280000 32.5
3.290000 34.8
3.300000 34.8
3.310000 41.0
3.320000 32.5
3.330000 34.8
3.340000 38.4
3.350000 22.1
3.360000 27.0
3.370000 34.8
3.380000 37.2
3.390000 43.6
3.400000 43.6
3.410000 34.8
3.420000 33.6
3.430000 38.4
3.440000 32.5
3.450000 37.2
3.460000 32.5
3.470000 43.6
3.480000 43.6
3.490000 39.7
3.500000 47.6
3.510000 47.6
3.520000 62.4
3.530000 62.4
3.540000 62.4
3.550000 74.0
3.560000 67.2
3.570000 98.0
3.580000 90.3
3.590000 139.2
3.600000 127.7
3.610000 161.3
3.620000 196.0
3.630000 272.3
3.640000 292.4
3.650000 432.6
3.660000 501.8
3.670000 630.0
3.680000 772.8
3.690000 1149.2
3.700000 1513.2
3.710000 2294.4
3.720000 4019.6
3.730000 8873.6
3.740000 15351.2
3.750000 26438.8
3.760000 31969.4
3.770000 39800.3
3.780000 35268.8
3.790000 31364.4
3.800000 19909.2
3.810000 13900.4
3.820000 7361.6
3.830000 5314.4
3.840000 2937.6
3.850000 2246.8
3.860000 1413.8
3.870000 1197.2
3.880000 918.1
3.890000 806.6
3.900000 605.2
3.910000 566.4
3.920000 470.9
3.930000 380.3
3.940000 338.6
3.950000 331.2
3.960000 243.4
3.970000 272.3
3.980000 234.1
3.990000 213.2
4.000000 171.6
4.010000 210.3
4.020000 204.5
4.030000 171.6
4.040000 139.2
4.050000 153.8
4.060000 130.0
4.070000 112.4
4.080000 141.6
4.090000 114.5
4.100000 106.1
4.110000 100.0
4.120000 94.1
4.130000 114.5
4.140000 98.0
4.150000 94.1
4.160000 86.5
4.170000 65.6
4.180000 68.9
4.190000 88.4
4.200000 65.6
4.210000 77.4
4.220000 59.3
4.230000 79.2
4.240000 59.3
4.250000 54.8
4.260000 51.8
4.270000 59.3
4.280000 46.2
4.290000 49.0
4.300000 51.8
4.310000 59.3
4.320000 39.7
4.330000 50.4
4.340000 54.8
4.350000 60.8
4.360000 49.0
4.370000 56.3
4.380000 38.4
4.390000 46.2
4.400000 56.3
4.410000 43.6
4.420000 33.6
4.430000 43.6
4.440000 44.9
4.450000 42.3
4.460000 29.2
4.470000 43.6
4.480000 34.8
4.490000 38.4
4.500000 23.0
4.510000 39.7
4.520000 38.4
4.530000 25.0
4.540000 33.6
4.550000 33.6
4.560000 37.2
4.570000 23.0
4.580000 32.5
4.590000 39.7
4.600000 37.2
4.610000 36.0
4.620000 32.5
4.630000 34.8
4.640000 20.3
4.650000 22.1
4.660000 33.6
4.670000 36.0
4.680000 26.0
4.690000 29.2
4.700000 32.5
4.710000 27.0
4.720000 32.5
4.730000 25.0
4.740000 25.0
4.750000 37.2
4.760000 22.1
4.770000 38.4
4.780000 24.0
4.790000 27.0
4.800000 32.5
4.810000 30.3
4.820000 31.4
4.830000 19.4
4.840000 30.3
4.850000 25.0
4.860000 15.2
4.870000 30.3
4.880000 25.0
4.890000 27.0
4.900000 23.0
4.910000 34.8
4.920000 22.1
4.930000 19.4
4.940000 17.6
4.950000 25.0
4.960000 23.0
4.970000 26.0
4.980000 22.1
4.990000 23.0
5.000000 16.0
5.010000 26.0
5.020000 25.0
5.030000 27.0
5.040000 16.8
5.050000 27.0
5.060000 23.0
5.070000 28.1
5.080000 30.3
5.090000 32.5
5.100000 25.0
5.110000 21.2
5.120000 24.0
5.130000 28.1
5.140000 15.2
5.150000 24.0
5.160000 23.0
5.170000 28.1
5.180000 25.0
5.190000 29.2
5.200000 25.0
5.210000 22.1
5.220000 26.0
5.230000 24.0
5.240000 23.0
5.250000 27.0
5.260000 20.3
5.270000 28.1
5.280000 21.2
5.290000 23.0
5.300000 29.2
5.310000 23.0
5.320000 25.0
5.330000 25.0
5.340000 7.8
5.350000 23.0
5.360000 29.2
5.370000 23.0
5.380000 34.8
5.390000 30.3
5.400000 29.2
5.410000 56.3
5.420000 38.4
5.430000 50.4
5.440000 50.4
5.450000 62.4
5.460000 70.6
5.470000 86.5
5.480000 94.1
5.490000 153.8
5.500000 204.5
5.510000 416.2
5.520000 600.3
5.530000 979.7
5.540000 954.8
5.550000 1095.6
5.560000 818.0
5.570000 707.6
5.580000 436.8
5.590000 357.2
5.600000 193.2
5.610000 179.6
5.620000 94.1
5.630000 65.6
5.640000 46.2
5.650000 39.7
5.660000 16.8
5.670000 21.2
5.680000 20.3
5.690000 10.2
5.700000 6.8
5.710000 7.8
5.720000 5.8
5.730000 5.8
5.740000 5.8
5.750000 4.8
5.760000 4.0
5.770000 6.8
5.780000 2.9
5.790000 10.9
5.800000 2.9
5.810000 5.8
5.820000 4.8
5.830000 10.2
5.840000 6.8
5.850000 10.2
5.860000 2.0
5.870000 2.0
5.880000 4.0
5.890000 2.9
5.900000 4.8
5.910000 4.0
5.920000 5.8
5.930000 4.8
5.940000 7.8
5.950000 10.2
5.960000 5.8
5.970000 6.8
5.980000 9.0
5.990000 9.0
6.000000 2.9
6.010000 5.8
6.020000 4.8
6.030000 1.0
6.040000 6.8
6.050000 4.8
6.060000 2.9
6.070000 2.0
6.080000 4.0
6.090000 2.9
6.100000 4.0
6.110000 4.8
6.120000 4.0
6.130000 5.8
6.140000 4.0
6.150000 4.8
6.160000 5.8
6.170000 4.0
6.180000 9.0
6.190000 4.0
6.200000 2.0
6.210000 4.8
6.220000 4.8
6.230000 2.9
6.240000 2.0
6.250000 6.8
6.260000 4.8
6.270000 5.8
6.280000 4.8
6.290000 4.8
6.300000 9.0
6.310000 4.0
6.320000 4.0
6.330000 2.9
6.340000 4.0
6.350000 10.2
6.360000 2.9
6.370000 2.0
6.380000 4.0
6.390000 4.0
6.400000 4.8
6.410000 2.0
6.420000 4.0
6.430000 5.8
6.440000 5.8
6.450000 5.8
6.460000 4.0
6.470000 2.0
6.480000 5.8
6.490000 4.8
6.500000 4.8
6.510000 7.8
6.520000 9.0
6.530000 0.0
6.540000 1.0
6.550000 6.8
6.560000 5.8
6.570000 7.8
6.580000 4.0
6.590000 1.0
6.600000 6.8
6.610000 4.0
6.620000 4.0
6.630000 2.9
6.640000 2.0
6.650000 2.0
6.660000 2.9
6.670000 2.0
6.680000 5.8
6.690000 6.8
6.700000 4.8
6.710000 4.8
6.720000 1.0
6.730000 4.0
6.740000 5.8
6.750000 1.0
6.760000 2.0
6.770000 4.0
6.780000 4.8
6.790000 1.0
6.800000 4.0
6.810000 6.8
6.820000 5.8
6.830000 2.0
6.840000 2.9
6.850000 4.0
6.860000 4.8
6.870000 2.0
6.880000 1.0
6.890000 4.0
6.900000 2.0
6.910000 4.8
6.920000 2.9
6.930000 6.8
6.940000 5.8
6.950000 10.9
6.960000 4.8
6.970000 4.0
6.980000 1.0
6.990000 6.8
7.000000 5.8
7.010000 4.8
7.020000 4.0
7.030000 4.0
7.040000 5.8
7.050000 1.0
7.060000 2.9
7.070000 2.9
7.080000 5.8
7.090000 4.8
7.100000 2.0
7.110000 10.9
7.120000 4.8
7.130000 5.8
7.140000 9.0
7.150000 4.8
7.160000 2.9
7.170000 6.8
7.180000 10.2
7.190000 13.0
7.200000 9.0
7.210000 21.2
7.220000 19.4
7.230000 26.0
7.240000 29.2
7.250000 31.4
7.260000 24.0
7.270000 50.4
7.280000 92.2
7.290000 158.8
7.300000 252.8
7.310000 501.8
7.320000 547.6
7.330000 665.6
7.340000 650.3
7.350000 697.0
7.360000 492.8
7.370000 372.5
7.380000 240.3
7.390000 210.3
7.400000 116.6
7.410000 130.0
7.420000 68.9
7.430000 42.3
7.440000 37.2
7.450000 33.6
7.460000 22.1
7.470000 23.0
7.480000 13.7
7.490000 21.2
7.500000 16.0
7.510000 12.3
7.520000 7.8
7.530000 10.2
7.540000 7.8
7.550000 9.0
7.560000 2.9
7.570000 10.2
7.580000 9.0
7.590000 10.9
7.600000 4.0
7.610000 4.8
7.620000 6.8
7.630000 7.8
7.640000 6.8
7.650000 5.8
7.660000 7.8
7.670000 4.8
7.680000 2.0
7.690000 7.8
7.700000 2.0
7.710000 4.8
7.720000 4.8
7.730000 2.0
7.740000 4.8
7.750000 4.8
7.760000 6.8
7.770000 2.0
7.780000 2.0
7.790000 2.9
7.800000 4.0
7.810000 2.9
7.820000 2.0
7.830000 2.9
7.840000 2.0
7.850000 0.0
7.860000 1.0
7.870000 4.0
7.880000 5.8
7.890000 2.9
7.900000 2.9
7.910000 6.8
7.920000 1.0
7.930000 4.0
7.940000 4.8
7.950000 4.0
7.960000 2.0
7.970000 4.0
7.980000 5.8
7.990000 2.0
8.000000 4.0
8.010000 2.9
8.020000 2.9
8.030000 6.8
8.040000 1.0
8.050000 7.8
8.060000 4.8
8.070000 2.9
8.080000 2.0
8.090000 7.8
8.100000 2.9
8.110000 2.0
8.120000 1.0
8.130000 2.9
8.140000 1.0
8.150000 1.0
8.160000 4.8
8.170000 4.0
8.180000 4.0
8.190000 1.0
8.200000 2.0
8.210000 2.9
8.220000 0.0
8.230000 1.0
8.240000 4.8
8.250000 0.0
8.260000 2.0
8.270000 2.0
8.280000 0.0
8.290000 2.9
8.300000 2.0
8.310000 2.0
8.320000 2.0
8.330000 2.0
8.340000 4.0
8.350000 2.9
8.360000 2.0
8.370000 2.9
8.380000 4.0
8.390000 0.0
8.400000 0.0
8.410000 2.0
8.420000 4.8
8.430000 4.8
8.440000 2.9
8.450000 2.0
8.460000 2.0
8.470000 1.0
8.480000 2.9
8.490000 2.9
8.500000 2.9
8.510000 1.0
8.520000 2.9
8.530000 4.0
8.540000 0.0
8.550000 2.9
8.560000 0.0
8.570000 2.9
8.580000 4.0
8.590000 2.0
8.600000 2.0
8.610000 1.0
8.620000 1.0
8.630000 2.9
8.640000 2.0
8.650000 2.0
8.660000 1.0
8.670000 4.8
8.680000 4.8
8.690000 1.0
8.700000 2.0
8.710000 2.0
8.720000 1.0
8.730000 2.0
8.740000 2.0
8.750000 2.0
8.760000 2.9
8.770000 5.8
8.780000 1.0
8.790000 2.0
8.800000 2.9
8.810000 4.0
8.820000 2.0
8.830000 2.9
8.840000 2.9
8.850000 2.9
8.860000 4.8
8.870000 1.0
8.880000 2.9
8.890000 2.9
8.900000 4.0
8.910000 1.0
8.920000 2.0
8.930000 6.8
8.940000 2.0
8.950000 4.8
8.960000 4.8
8.970000 4.0
8.980000 2.9
8.990000 9.0
9.000000 2.9
9.010000 5.8
9.020000 2.9
9.030000 4.8
9.040000 7.8
9.050000 9.0
9.060000 13.0
9.070000 17.6
9.080000 28.1
9.090000 38.4
9.100000 74.0
9.110000 88.4
9.120000 139.2
9.130000 156.3
9.140000 125.4
9.150000 108.2
9.160000 79.2
9.170000 92.2
9.180000 77.4
9.190000 47.6
9.200000 34.8
9.210000 30.3
9.220000 29.2
9.230000 20.3
9.240000 25.0
9.250000 10.9
9.260000 10.9
9.270000 9.0
9.280000 5.8
9.290000 2.9
9.300000 4.0
9.310000 2.9
9.320000 2.0
9.330000 1.0
9.340000 1.0
9.350000 4.0
9.360000 2.9
9.370000 2.0
9.380000 2.9
9.390000 1.0
9.400000 2.0
9.410000 2.0
9.420000 1.0
9.430000 2.9
9.440000 2.9
9.450000 2.0
9.460000 4.8
9.470000 2.0
9.480000 2.9
9.490000 0.0
9.500000 2.0
9.510000 4.8
9.520000 1.0
9.530000 1.0
9.540000 2.0
9.550000 2.0
9.560000 2.0
9.570000 2.0
9.580000 1.0
9.590000 0.0
9.600000 4.0
9.610000 1.0
9.620000 1.0
9.630000 0.0
9.640000 4.0
9.650000 2.0
9.660000 2.9
9.670000 4.0
9.680000 1.0
9.690000 2.0
9.700000 0.0
9.710000 2.0
9.720000 4.8
9.730000 1.0
9.740000 1.0
9.750000 0.0
9.760000 2.0
9.770000 4.0
9.780000 0.0
9.790000 1.0
9.800000 2.0
9.810000 1.0
9.820000 1.0
9.830000 2.9
9.840000 1.0
9.850000 2.9
9.860000 1.0
9.870000 1.0
9.880000 1.0
9.890000 0.0
9.900000 1.0
9.910000 2.0
9.920000 1.0
9.930000 2.0
9.940000 1.0
9.950000 5.8
9.960000 2.9
9.970000 2.0
9.980000 2.9
9.990000 2.9
10.000000 0.0
10.010000 2.0
10.020000 1.0
10.030000 2.0
10.040000 1.0
10.050000 0.0
10.060000 2.9
10.070000 1.0
10.080000 0.0
10.090000 2.9
10.100000 2.9
10.110000 4.8
10.120000 4.0
10.130000 0.0
10.140000 1.0
10.150000 1.0
10.160000 2.0
10.170000 2.9
10.180000 4.0
10.190000 1.0
10.200000 2.0
10.210000 0.0
10.220000 4.8
10.230000 2.0
10.240000 2.0
10.250000 1.0
10.260000 0.0
10.270000 0.0
10.280000 1.0
10.290000 0.0
10.300000 2.0
10.310000 4.0
10.320000 4.0
10.330000 1.0
10.340000 1.0
10.350000 1.0
10.360000 2.9
10.370000 1.0
10.380000 0.0
10.390000 2.9
10.400000 2.9
10.410000 2.0
10.420000 1.0
10.430000 1.0
10.440000 2.9
10.450000 2.9
10.460000 0.0
10.470000 2.0
10.480000 0.0
10.490000 2.0
10.500000 2.9
10.510000 2.9
10.520000 1.0
10.530000 4.0
10.540000 1.0
10.550000 0.0
10.560000 2.9
10.570000 0.0
10.580000 2.0
10.590000 2.9
10.600000 1.0
10.610000 1.0
10.620000 0.0
10.630000 2.0
10.640000 1.0
10.650000 4.8
10.660000 1.0
10.670000 1.0
10.680000 4.0
10.690000 2.9
10.700000 2.0
10.710000 4.0
10.720000 1.0
10.730000 1.0
10.740000 4.0
10.750000 2.0
10.760000 2.9
10.770000 2.0
10.780000 2.0
10.790000 4.0
10.800000 4.8
10.810000 0.0
10.820000 1.0
10.830000 0.0
10.840000 2.0
10.850000 1.0
10.860000 2.0
10.870000 1.0
10.880000 4.8
10.890000 4.8
10.900000 4.8
10.910000 9.0
10.920000 12.3
10.930000 9.0
10.940000 4.8
10.950000 4.8
10.960000 7.8
10.970000 10.9
10.980000 4.0
10.990000 2.9
11.000000 4.0
11.010000 1.0
11.020000 2.0
11.030000 1.0
11.040000 2.9
11.050000 2.9
11.060000 2.0
11.070000 2.0
11.080000 0.0
11.090000 2.0
11.100000 1.0
11.110000 0.0
11.120000 2.0
11.130000 0.0
11.140000 2.0
11.150000 0.0
11.160000 1.0
11.170000 1.0
11.180000 2.9
11.190000 2.9
11.200000 2.0
11.210000 1.0
11.220000 0.0
11.230000 2.9
11.240000 2.0
11.250000 0.0
11.260000 2.9
11.270000 0.0
11.280000 1.0
11.290000 4.0
11.300000 1.0
11.310000 1.0
11.320000 2.0
11.330000 1.0
11.340000 2.0
11.350000 1.0
11.360000 1.0
11.370000 5.8
11.380000 0.0
11.390000 2.9
11.400000 2.0
11.410000 1.0
11.420000 0.0
11.430000 1.0
11.440000 2.9
11.450000 1.0
11.460000 0.0
11.470000 4.0
11.480000 0.0
11.490000 2.0
11.500000 2.0
11.510000 0.0
11.520000 1.0
11.530000 5.8
11.540000 0.0
11.550000 2.0
11.560000 2.0
11.570000 2.9
11.580000 2.9
11.590000 0.0
11.600000 2.9
11.610000 0.0
11.620000 1.0
11.630000 2.0
11.640000 1.0
11.650000 2.0
11.660000 0.0
11.670000 2.0
11.680000 2.0
11.690000 1.0
11.700000 2.9
11.710000 4.0
11.720000 0.0
11.730000 4.0
11.740000 2.0
11.750000 0.0
11.760000 1.0
11.770000 0.0
11.780000 1.0
11.790000 4.0
11.800000 2.9
11.810000 1.0
11.820000 4.8
11.830000 1.0
11.840000 1.0
11.850000 2.0
11.860000 1.0
11.870000 1.0
11.880000 2.9
11.890000 1.0
11.900000 2.9
11.910000 1.0
11.920000 1.0
11.930000 0.0
11.940000 0.0
11.950000 1.0
11.960000 4.0
11.970000 1.0
11.980000 2.0
11.990000 2.0
