0.00500 39593576.0
0.01500 44155992.0
0.02500 35661596.0
0.03500 22962606.0
0.04500 12879699.0
0.05500 6789173.0
0.06500 4356969.0
0.07500 3872603.0
0.08500 4247473.0
0.09500 4767028.0
0.10500 5238869.0
0.11500 5866688.0
0.12500 6308704.0
0.13500 6794901.0
0.14500 7428924.0
0.15500 7856278.0
0.16500 8547869.0
0.17500 9045850.0
0.18500 9464848.0
0.19500 10148090.0
0.20500 10588700.0
0.21500 11222235.0
0.22500 11685264.0
0.23500 12055681.0
0.24500 12794947.0
0.25500 13132072.0
0.26500 13829440.0
0.27500 14329521.0
0.28500 14564133.0
0.29500 15217793.0
0.30500 15644867.0
0.31500 16282960.0
0.32500 16942796.0
0.33500 17160264.0
0.34500 17802576.0
0.35500 18256964.0
0.36500 18746940.0
0.37500 19194324.0
0.38500 19365400.0
0.39500 19966304.0
0.40500 20483144.0
0.41500 20839076.0
0.42500 21491972.0
0.43500 21671748.0
0.44500 22275658.0
0.45500 22895942.0
0.46500 23223880.0
0.47500 23714340.0
0.48500 23809636.0
0.49500 24132768.0
0.50500 24678676.0
0.51500 24936164.0
0.52500 25281280.0
0.53500 25510590.0
0.54500 25824216.0
0.55500 26321664.0
0.56500 26470040.0
0.57500 26835216.0
0.58500 26901052.0
0.59500 26946104.0
0.60500 27435392.0
0.61500 27531116.0
0.62500 27588982.0
0.63500 27534842.0
0.64500 27292292.0
0.65500 27096912.0
0.66500 26270520.0
0.67500 24774126.0
0.68500 22766038.0
0.69500 19760690.0
0.70500 16741750.0
0.71500 13922081.0
0.72500 11686119.0
0.73500 10076755.0
0.74500 8733762.0
0.75500 7736650.0
0.76500 6894656.0
0.77500 6158105.0
0.78500 5605500.0
0.79500 5069650.0
0.80500 4649106.0
0.81500 4291510.0
0.82500 3914371.0
0.83500 3664490.0
0.84500 3398291.0
0.85500 3149410.0
0.86500 2953177.0
0.87500 2729111.0
0.88500 2573819.0
0.89500 2416551.0
0.90500 2283406.0
0.91500 2154923.0
0.92500 2027281.0
0.93500 1912609.0
0.94500 1803880.0
0.95500 1713354.0
0.96500 1634684.0
0.97500 1555017.0
0.98500 1485235.0
0.99500 1412284.0
1.00500 1347872.0
1.01500 1273583.0
1.02500 1214055.0
1.03500 1161003.0
1.04500 1095250.0
1.05500 1051995.0
1.06500 1006110.0
1.07500 951978.0
1.08500 921006.0
1.09500 880772.0
1.10500 839536.0
1.11500 814097.0
1.12500 771971.0
1.13500 740469.0
1.14500 725096.0
1.15500 685139.0
1.16500 661238.0
1.17500 647158.0
1.18500 608339.0
1.19500 588786.0
1.20500 582394.0
1.21500 551781.0
1.22500 526368.0
1.23500 521701.0
1.24500 493654.0
1.25500 481020.0
1.26500 480621.0
1.27500 454432.0
1.28500 436476.0
1.29500 438613.0
1.30500 415129.0
1.31500 394998.0
1.32500 395204.0
1.33500 380632.0
1.34500 356591.0
1.35500 358605.0
1.36500 347413.0
1.37500 327726.0
1.38500 330103.0
1.39500 324456.0
1.40500 304411.0
1.41500 303743.0
1.42500 306223.0
1.43500 290055.0
1.44500 285201.0
1.45500 294536.0
1.46500 283737.0
1.47500 274857.0
1.48500 285449.0
1.49500 276848.0
1.50500 257165.0
1.51500 264629.0
1.52500 261831.0
1.53500 242063.0
1.54500 244590.0
1.55500 252537.0
1.56500 241384.0
1.57500 237868.0
1.58500 248299.0
1.59500 238714.0
1.60500 228493.0
1.61500 245180.0
1.62500 248781.0
1.63500 235171.0
1.64500 245088.0
1.65500 258105.0
1.66500 243236.0
1.67500 239515.0
1.68500 254615.0
1.69500 248028.0
1.70500 237233.0
1.71500 257848.0
1.72500 270570.0
1.73500 262352.0
1.74500 282226.0
1.75500 313066.0
1.76500 310834.0
1.77500 314987.0
1.78500 353865.0
1.79500 365790.0
1.80500 356359.0
1.81500 390836.0
1.82500 433164.0
1.83500 433641.0
1.84500 483793.0
1.85500 579888.0
1.86500 639859.0
1.87500 714479.0
1.88500 881319.0
1.89500 1034857.0
1.90500 1223634.0
1.91500 1675521.0
1.92500 2566077.0
1.93500 4218613.0
1.94500 7697101.0
1.95500 13431936.0
1.96500 18939644.0
1.97500 21991744.0
1.98500 20886640.0
1.99500 15887663.0
2.00500 9078999.0
2.01500 4101424.0
2.02500 2105938.0
2.03500 1479238.0
2.04500 927590.0
2.05500 565624.0
2.06500 461490.0
2.07500 360532.0
2.08500 247315.0
2.09500 219089.0
2.10500 203382.0
2.11500 149145.0
2.12500 113179.0
2.13500 111051.0
2.14500 95121.0
2.15500 71619.0
2.16500 69051.0
2.17500 67398.0
2.18500 52238.0
2.19500 44368.0
2.20500 46966.0
2.21500 41179.0
2.22500 31882.0
2.23500 31603.0
2.24500 31737.0
2.25500 26470.0
2.26500 22638.0
2.27500 24745.0
2.28500 22470.0
2.29500 18286.0
2.30500 18695.0
2.31500 19618.0
2.32500 16854.0
2.33500 14178.0
2.34500 15125.0
2.35500 14523.0
2.36500 11738.0
2.37500 11804.0
2.38500 12550.0
2.39500 10517.0
2.40500 9345.0
2.41500 10136.0
2.42500 10063.0
2.43500 8289.0
2.44500 8744.0
2.45500 9702.0
2.46500 8392.0
2.47500 7330.0
2.48500 7730.0
2.49500 7843.0
2.50500 6782.0
2.51500 6745.0
2.52500 7583.0
2.53500 6789.0
2.54500 5766.0
2.55500 6231.0
2.56500 6467.0
2.57500 5528.0
2.58500 5053.0
2.59500 5654.0
2.60500 5292.0
2.61500 4631.0
2.62500 4855.0
2.63500 5407.0
2.64500 4840.0
2.65500 4504.0
2.66500 5085.0
2.67500 5236.0
2.68500 4409.0
2.69500 4420.0
2.70500 5002.0
2.71500 4535.0
2.72500 3957.0
2.73500 4198.0
2.74500 4437.0
2.75500 4102.0
2.76500 3994.0
2.77500 4332.0
2.78500 4180.0
2.79500 3763.0
2.80500 3974.0
2.81500 4282.0
2.82500 3621.0
2.83500 3054.0
2.84500 3249.0
2.85500 3150.0
2.86500 2745.0
2.87500 3022.0
2.88500 3368.0
2.89500 3069.0
2.90500 2667.0
2.91500 3088.0
2.92500 3012.0
2.93500 2676.0
2.94500 2652.0
2.95500 3018.0
2.96500 2981.0
2.97500 2437.0
2.98500 2475.0
2.99500 2591.0
3.00500 2348.0
3.01500 2386.0
3.02500 2438.0
3.03500 2578.0
3.04500 2355.0
3.05500 2455.0
3.06500 2705.0
3.07500 2432.0
3.08500 2268.0
3.09500 2271.0
3.10500 2435.0
3.11500 2001.0
3.12500 1999.0
3.13500 2383.0
3.14500 2209.0
3.15500 1984.0
3.16500 2016.0
3.17500 2127.0
3.18500 2015.0
3.19500 1962.0
3.20500 2131.0
3.21500 2052.0
3.22500 1786.0
3.23500 1741.0
3.24500 1812.0
3.25500 1790.0
3.26500 1597.0
3.27500 1670.0
3.28500 1687.0
3.29500 1593.0
3.30500 1426.0
3.31500 1607.0
3.32500 1621.0
3.33500 1446.0
3.34500 1398.0
3.35500 1458.0
3.36500 1358.0
3.37500 1309.0
3.38500 1480.0
3.39500 1438.0
3.40500 1341.0
3.41500 1116.0
3.42500 1202.0
3.43500 1083.0
3.44500 1018.0
3.45500 1192.0
3.46500 1298.0
3.47500 1266.0
3.48500 1101.0
3.49500 1204.0
3.50500 1300.0
3.51500 1100.0
3.52500 1032.0
3.53500 1132.0
3.54500 967.0
3.55500 879.0
3.56500 1052.0
3.57500 1146.0
3.58500 1132.0
3.59500 1133.0
3.60500 1152.0
3.61500 1277.0
3.62500 1281.0
3.63500 1349.0
3.64500 1623.0
3.65500 1751.0
3.66500 1935.0
3.67500 2407.0
3.68500 3066.0
3.69500 4416.0
3.70500 7119.0
3.71500 12562.0
3.72500 25534.0
3.73500 55990.0
3.74500 116604.0
3.75500 204683.0
3.76500 278072.0
3.77500 295980.0
3.78500 240062.0
3.79500 151298.0
3.80500 81022.0
3.81500 50607.0
3.82500 38410.0
3.83500 27400.0
3.84500 17844.0
3.85500 13890.0
3.86500 12576.0
3.87500 9807.0
3.88500 7705.0
3.89500 7593.0
3.90500 7232.0
3.91500 5866.0
3.92500 5124.0
3.93500 5418.0
3.94500 5132.0
3.95500 4136.0
3.96500 4003.0
3.97500 4307.0
3.98500 3948.0
3.99500 3322.0
4.00500 3401.0
4.01500 3288.0
4.02500 3003.0
4.03500 2822.0
4.04500 3060.0
4.05500 2996.0
4.06500 2642.0
4.07500 2639.0
4.08500 2785.0
4.09500 2611.0
4.10500 2387.0
4.11500 2457.0
4.12500 2469.0
4.13500 2066.0
4.14500 1998.0
4.15500 2124.0
4.16500 1941.0
4.17500 1726.0
4.18500 1725.0
4.19500 1910.0
4.20500 1743.0
4.21500 1599.0
4.22500 1789.0
4.23500 1620.0
4.24500 1546.0
4.25500 1559.0
4.26500 1544.0
4.27500 1542.0
4.28500 1278.0
4.29500 1416.0
4.30500 1409.0
4.31500 1289.0
4.32500 1301.0
4.33500 1386.0
4.34500 1357.0
4.35500 1208.0
4.36500 1251.0
4.37500 1354.0
4.38500 1223.0
4.39500 1195.0
4.40500 1172.0
4.41500 1229.0
4.42500 1166.0
4.43500 1123.0
4.44500 1138.0
4.45500 1207.0
4.46500 1011.0
4.47500 1075.0
4.48500 1146.0
4.49500 1119.0
4.50500 980.0
4.51500 1051.0
4.52500 1029.0
4.53500 926.0
4.54500 897.0
4.55500 930.0
4.56500 870.0
4.57500 804.0
4.58500 840.0
4.59500 913.0
4.60500 861.0
4.61500 878.0
4.62500 905.0
4.63500 940.0
4.64500 923.0
4.65500 786.0
4.66500 797.0
4.67500 830.0
4.68500 723.0
4.69500 735.0
4.70500 702.0
4.71500 742.0
4.72500 702.0
4.73500 744.0
4.74500 728.0
4.75500 697.0
4.76500 601.0
4.77500 695.0
4.78500 680.0
4.79500 662.0
4.80500 620.0
4.81500 707.0
4.82500 669.0
4.83500 583.0
4.84500 623.0
4.85500 613.0
4.86500 594.0
4.87500 630.0
4.88500 641.0
4.89500 622.0
4.90500 515.0
4.91500 562.0
4.92500 569.0
4.93500 608.0
4.94500 567.0
4.95500 626.0
4.96500 618.0
4.97500 626.0
4.98500 602.0
4.99500 558.0
5.00500 602.0
5.01500 565.0
5.02500 601.0
5.03500 604.0
5.04500 573.0
5.05500 568.0
5.06500 630.0
5.07500 643.0
5.08500 541.0
5.09500 575.0
5.10500 553.0
5.11500 511.0
5.12500 542.0
5.13500 598.0
5.14500 619.0
5.15500 539.0
5.16500 518.0
5.17500 526.0
5.18500 477.0
5.19500 442.0
5.20500 536.0
5.21500 517.0
5.22500 511.0
5.23500 478.0
5.24500 464.0
5.25500 546.0
5.26500 520.0
5.27500 500.0
5.28500 566.0
5.29500 571.0
5.30500 499.0
5.31500 520.0
5.32500 534.0
5.33500 569.0
5.34500 596.0
5.35500 648.0
5.36500 668.0
5.37500 693.0
5.38500 669.0
5.39500 671.0
5.40500 736.0
5.41500 691.0
5.42500 718.0
5.43500 833.0
5.44500 966.0
5.45500 1083.0
5.46500 1029.0
5.47500 1017.0
5.48500 1138.0
5.49500 1190.0
5.50500 1313.0
5.51500 1538.0
5.52500 1843.0
5.53500 2607.0
5.54500 4377.0
5.55500 7541.0
5.56500 14097.0
5.57500 25878.0
5.58500 41450.0
5.59500 53474.0
5.60500 54883.0
5.61500 46231.0
5.62500 32337.0
5.63500 19641.0
5.64500 12881.0
5.65500 9097.0
5.66500 6310.0
5.67500 4150.0
5.68500 2698.0
5.69500 1869.0
5.70500 1515.0
5.71500 1119.0
5.72500 1057.0
5.73500 865.0
5.74500 764.0
5.75500 555.0
5.76500 443.0
5.77500 409.0
5.78500 348.0
5.79500 310.0
5.80500 367.0
5.81500 318.0
5.82500 287.0
5.83500 271.0
5.84500 314.0
5.85500 308.0
5.86500 340.0
5.87500 327.0
5.88500 338.0
5.89500 286.0
5.90500 329.0
5.91500 261.0
5.92500 258.0
5.93500 231.0
5.94500 239.0
5.95500 228.0
5.96500 274.0
5.97500 266.0
5.98500 277.0
5.99500 248.0
6.00500 221.0
6.01500 264.0
6.02500 382.0
6.03500 282.0
6.04500 293.0
6.05500 279.0
6.06500 280.0
6.07500 230.0
6.08500 253.0
6.09500 207.0
6.10500 262.0
6.11500 275.0
6.12500 312.0
6.13500 307.0
6.14500 315.0
6.15500 300.0
6.16500 361.0
6.17500 432.0
6.18500 376.0
6.19500 340.0
6.20500 281.0
6.21500 243.0
6.22500 288.0
6.23500 420.0
6.24500 509.0
6.25500 659.0
6.26500 533.0
6.27500 394.0
6.28500 296.0
6.29500 307.0
6.30500 277.0
6.31500 284.0
6.32500 307.0
6.33500 292.0
6.34500 210.0
6.35500 283.0
6.36500 330.0
6.37500 381.0
6.38500 402.0
6.39500 401.0
6.40500 458.0
6.41500 325.0
6.42500 397.0
6.43500 498.0
6.44500 345.0
6.45500 392.0
6.46500 453.0
6.47500 424.0
6.48500 321.0
6.49500 309.0
6.50500 249.0
6.51500 236.0
6.52500 323.0
6.53500 409.0
6.54500 342.0
6.55500 313.0
6.56500 360.0
6.57500 350.0
6.58500 365.0
6.59500 324.0
6.60500 342.0
6.61500 389.0
6.62500 374.0
6.63500 394.0
6.64500 329.0
6.65500 534.0
6.66500 604.0
6.67500 598.0
6.68500 475.0
6.69500 607.0
6.70500 343.0
6.71500 313.0
6.72500 266.0
6.73500 333.0
6.74500 376.0
6.75500 376.0
6.76500 371.0
6.77500 394.0
6.78500 422.0
6.79500 494.0
6.80500 408.0
6.81500 384.0
6.82500 430.0
6.83500 388.0
6.84500 392.0
6.85500 354.0
6.86500 190.0
6.87500 243.0
6.88500 209.0
6.89500 323.0
6.90500 321.0
6.91500 363.0
6.92500 358.0
6.93500 368.0
6.94500 362.0
6.95500 373.0
6.96500 365.0
6.97500 441.0
6.98500 462.0
6.99500 411.0
7.00500 348.0
7.01500 260.0
7.02500 295.0
7.03500 238.0
7.04500 218.0
7.05500 261.0
7.06500 234.0
7.07500 346.0
7.08500 321.0
7.09500 288.0
7.10500 316.0
7.11500 392.0
7.12500 335.0
7.13500 491.0
7.14500 464.0
7.15500 262.0
7.16500 266.0
7.17500 219.0
7.18500 212.0
7.19500 282.0
7.20500 226.0
7.21500 335.0
7.22500 308.0
7.23500 320.0
7.24500 344.0
7.25500 323.0
7.26500 301.0
7.27500 304.0
7.28500 295.0
7.29500 350.0
7.30500 373.0
7.31500 360.0
7.32500 377.0
7.33500 450.0
7.34500 517.0
7.35500 548.0
7.36500 693.0
7.37500 916.0
7.38500 1347.0
7.39500 2126.0
7.40500 3585.0
7.41500 5682.0
7.42500 8663.0
7.43500 11428.0
7.44500 12724.0
7.45500 12109.0
7.46500 9938.0
7.47500 7184.0
7.48500 5208.0
7.49500 3983.0
7.50500 3228.0
7.51500 2633.0
7.52500 2016.0
7.53500 1403.0
7.54500 1172.0
7.55500 958.0
7.56500 848.0
7.57500 690.0
7.58500 696.0
7.59500 628.0
7.60500 519.0
7.61500 479.0
7.62500 439.0
7.63500 527.0
7.64500 472.0
7.65500 546.0
7.66500 513.0
7.67500 451.0
7.68500 339.0
7.69500 361.0
7.70500 298.0
7.71500 285.0
7.72500 303.0
7.73500 319.0
7.74500 340.0
7.75500 330.0
7.76500 269.0
7.77500 239.0
7.78500 263.0
7.79500 330.0
7.80500 343.0
7.81500 324.0
7.82500 289.0
7.83500 312.0
7.84500 376.0
7.85500 335.0
7.86500 248.0
7.87500 289.0
7.88500 362.0
7.89500 324.0
7.90500 321.0
7.91500 273.0
7.92500 307.0
7.93500 270.0
7.94500 313.0
7.95500 281.0
7.96500 223.0
7.97500 257.0
7.98500 360.0
7.99500 501.0
8.00500 453.0
8.01500 455.0
8.02500 352.0
8.03500 366.0
8.04500 437.0
8.05500 414.0
8.06500 475.0
8.07500 451.0
8.08500 446.0
8.09500 429.0
8.10500 378.0
8.11500 401.0
8.12500 414.0
8.13500 408.0
8.14500 428.0
8.15500 300.0
8.16500 397.0
8.17500 407.0
8.18500 271.0
8.19500 330.0
8.20500 366.0
8.21500 288.0
8.22500 346.0
8.23500 276.0
8.24500 253.0
8.25500 282.0
8.26500 336.0
8.27500 317.0
8.28500 473.0
8.29500 409.0
8.30500 463.0
8.31500 378.0
8.32500 338.0
8.33500 292.0
8.34500 263.0
8.35500 248.0
8.36500 337.0
8.37500 300.0
8.38500 312.0
8.39500 366.0
8.40500 312.0
8.41500 298.0
8.42500 334.0
8.43500 360.0
8.44500 360.0
8.45500 344.0
8.46500 377.0
8.47500 310.0
8.48500 320.0
8.49500 265.0
8.50500 263.0
8.51500 238.0
8.52500 282.0
8.53500 354.0
8.54500 333.0
8.55500 405.0
8.56500 411.0
8.57500 415.0
8.58500 464.0
8.59500 458.0
8.60500 447.0
8.61500 390.0
8.62500 309.0
8.63500 268.0
8.64500 227.0
8.65500 247.0
8.66500 358.0
8.67500 322.0
8.68500 316.0
8.69500 398.0
8.70500 419.0
8.71500 413.0
8.72500 357.0
8.73500 344.0
8.74500 369.0
8.75500 416.0
8.76500 402.0
8.77500 381.0
8.78500 605.0
8.79500 459.0
8.80500 239.0
8.81500 290.0
8.82500 305.0
8.83500 295.0
8.84500 279.0
8.85500 281.0
8.86500 245.0
8.87500 254.0
8.88500 302.0
8.89500 302.0
8.90500 261.0
8.91500 206.0
8.92500 195.0
8.93500 185.0
8.94500 242.0
8.95500 266.0
8.96500 298.0
8.97500 264.0
8.98500 194.0
8.99500 184.0
9.00500 233.0
9.01500 309.0
9.02500 278.0
9.03500 175.0
9.04500 230.0
9.05500 210.0
9.06500 198.0
9.07500 238.0
9.08500 266.0
9.09500 280.0
9.10500 388.0
9.11500 439.0
9.12500 446.0
9.13500 363.0
9.14500 387.0
9.15500 433.0
9.16500 360.0
9.17500 461.0
9.18500 377.0
9.19500 420.0
9.20500 484.0
9.21500 436.0
9.22500 381.0
9.23500 495.0
9.24500 503.0
9.25500 547.0
9.26500 641.0
9.27500 713.0
9.28500 832.0
9.29500 711.0
9.30500 698.0
9.31500 659.0
9.32500 684.0
9.33500 507.0
9.34500 538.0
9.35500 514.0
9.36500 559.0
9.37500 795.0
9.38500 918.0
9.39500 648.0
9.40500 569.0
9.41500 564.0
9.42500 691.0
9.43500 462.0
9.44500 454.0
9.45500 410.0
9.46500 385.0
9.47500 336.0
9.48500 367.0
9.49500 441.0
9.50500 425.0
9.51500 367.0
9.52500 519.0
9.53500 510.0
9.54500 341.0
9.55500 517.0
9.56500 480.0
9.57500 303.0
9.58500 354.0
9.59500 323.0
9.60500 312.0
9.61500 320.0
9.62500 260.0
9.63500 295.0
9.64500 204.0
9.65500 257.0
9.66500 350.0
9.67500 318.0
9.68500 305.0
9.69500 398.0
9.70500 260.0
9.71500 363.0
9.72500 389.0
9.73500 375.0
9.74500 259.0
9.75500 275.0
9.76500 208.0
9.77500 203.0
9.78500 187.0
9.79500 228.0
9.80500 200.0
9.81500 282.0
9.82500 247.0
9.83500 283.0
9.84500 330.0
9.85500 324.0
9.86500 379.0
9.87500 335.0
9.88500 314.0
9.89500 347.0
9.90500 307.0
9.91500 313.0
9.92500 332.0
9.93500 282.0
9.94500 358.0
9.95500 370.0
9.96500 396.0
9.97500 353.0
9.98500 246.0
9.99500 249.0
