0.00500 42755292.0
0.01500 47932736.0
0.02500 43149808.0
0.03500 32840278.0
0.04500 20306518.0
0.05500 8996276.0
0.06500 2954945.0
0.07500 1232862.0
0.08500 991448.0
0.09500 1083996.0
0.10500 1234119.0
0.11500 1390208.0
0.12500 1560392.0
0.13500 1702746.0
0.14500 1881886.0
0.15500 2090366.0
0.16500 2268422.0
0.17500 2484050.0
0.18500 2646178.0
0.19500 2855534.0
0.20500 3138169.0
0.21500 3363032.0
0.22500 3641294.0
0.23500 3833166.0
0.24500 4064627.0
0.25500 4410913.0
0.26500 4666815.0
0.27500 5005241.0
0.28500 5229462.0
0.29500 5436118.0
0.30500 5818565.0
0.31500 6139985.0
0.32500 6500014.0
0.33500 6709548.0
0.34500 6938152.0
0.35500 7374731.0
0.36500 7748377.0
0.37500 8094167.0
0.38500 8376288.0
0.39500 8598355.0
0.40500 9064346.0
0.41500 9487596.0
0.42500 9865064.0
0.43500 10208681.0
0.44500 10452414.0
0.45500 10905801.0
0.46500 11313986.0
0.47500 11602857.0
0.48500 11918094.0
0.49500 12118990.0
0.50500 12538280.0
0.51500 13084246.0
0.52500 13395721.0
0.53500 13646852.0
0.54500 13929221.0
0.55500 14376064.0
0.56500 14822582.0
0.57500 15034860.0
0.58500 15313540.0
0.59500 15543817.0
0.60500 15878556.0
0.61500 16368494.0
0.62500 16568329.0
0.63500 16682756.0
0.64500 16624981.0
0.65500 16460724.0
0.66500 16369297.0
0.67500 15498540.0
0.68500 14236205.0
0.69500 12338961.0
0.70500 10277928.0
0.71500 8776706.0
0.72500 7366265.0
0.73500 6357928.0
0.74500 5588106.0
0.75500 4914183.0
0.76500 4435027.0
0.77500 4009567.0
0.78500 3669321.0
0.79500 3375487.0
0.80500 3099066.0
0.81500 2895479.0
0.82500 2697416.0
0.83500 2505341.0
0.84500 2352501.0
0.85500 2180934.0
0.86500 2067077.0
0.87500 1952571.0
0.88500 1818715.0
0.89500 1735181.0
0.90500 1616498.0
0.91500 1534244.0
0.92500 1463391.0
0.93500 1380350.0
0.94500 1319467.0
0.95500 1252469.0
0.96500 1200221.0
0.97500 1143694.0
0.98500 1088777.0
0.99500 1045389.0
1.00500 996160.0
1.01500 952403.0
1.02500 917346.0
1.03500 880744.0
1.04500 851491.0
1.05500 818076.0
1.06500 782932.0
1.07500 755668.0
1.08500 724951.0
1.09500 697376.0
1.10500 668532.0
1.11500 642037.0
1.12500 620821.0
1.13500 604529.0
1.14500 584452.0
1.15500 564107.0
1.16500 544859.0
1.17500 529064.0
1.18500 511771.0
1.19500 493520.0
1.20500 476041.0
1.21500 458719.0
1.22500 447789.0
1.23500 436226.0
1.24500 421157.0
1.25500 407646.0
1.26500 394929.0
1.27500 384757.0
1.28500 375303.0
1.29500 362524.0
1.30500 353963.0
1.31500 342680.0
1.32500 333858.0
1.33500 326974.0
1.34500 315809.0
1.35500 307864.0
1.36500 302004.0
1.37500 293456.0
1.38500 288831.0
1.39500 281380.0
1.40500 274978.0
1.41500 269623.0
1.42500 264109.0
1.43500 261230.0
1.44500 252600.0
1.45500 248690.0
1.46500 245471.0
1.47500 240156.0
1.48500 236213.0
1.49500 231311.0
1.50500 225961.0
1.51500 224307.0
1.52500 220383.0
1.53500 216969.0
1.54500 212741.0
1.55500 211334.0
1.56500 208712.0
1.57500 205563.0
1.58500 202447.0
1.59500 200341.0
1.60500 198483.0
1.61500 194604.0
1.62500 193234.0
1.63500 191345.0
1.64500 190771.0
1.65500 188446.0
1.66500 187503.0
1.67500 187443.0
1.68500 185974.0
1.69500 186164.0
1.70500 186312.0
1.71500 187817.0
1.72500 188097.0
1.73500 189698.0
1.74500 192365.0
1.75500 194327.0
1.76500 199231.0
1.77500 201217.0
1.78500 204875.0
1.79500 211208.0
1.80500 214349.0
1.81500 219967.0
1.82500 224363.0
1.83500 231696.0
1.84500 241994.0
1.85500 257689.0
1.86500 272246.0
1.87500 286032.0
1.88500 298519.0
1.89500 315617.0
1.90500 338720.0
1.91500 364909.0
1.92500 406194.0
1.93500 457404.0
1.94500 518104.0
1.95500 593026.0
1.96500 688767.0
1.97500 811216.0
1.98500 1014430.0
1.99500 1333065.0
2.00500 1850152.0
2.01500 2851045.0
2.02500 4613436.0
2.03500 8222665.0
2.04500 13890566.0
2.05500 19887184.0
2.06500 23283756.0
2.07500 21224574.0
2.08500 14681780.0
2.09500 7878390.0
2.10500 3968464.0
2.11500 2166965.0
2.12500 1343399.0
2.13500 873900.0
2.14500 599239.0
2.15500 422543.0
2.16500 308274.0
2.17500 233117.0
2.18500 181269.0
2.19500 144342.0
2.20500 117903.0
2.21500 94966.0
2.22500 78801.0
2.23500 66699.0
2.24500 56624.0
2.25500 48185.0
2.26500 41109.0
2.27500 35830.0
2.28500 31513.0
2.29500 27536.0
2.30500 24006.0
2.31500 21016.0
2.32500 19120.0
2.33500 17352.0
2.34500 15926.0
2.35500 14151.0
2.36500 12902.0
2.37500 11733.0
2.38500 10861.0
2.39500 10225.0
2.40500 9818.0
2.41500 9207.0
2.42500 8720.0
2.43500 7771.0
2.44500 7307.0
2.45500 6506.0
2.46500 5981.0
2.47500 5456.0
2.48500 5352.0
2.49500 4977.0
2.50500 4745.0
2.51500 4564.0
2.52500 4480.0
2.53500 4245.0
2.54500 3954.0
2.55500 4051.0
2.56500 3777.0
2.57500 3712.0
2.58500 3583.0
2.59500 3303.0
2.60500 3264.0
2.61500 3071.0
2.62500 3102.0
2.63500 2985.0
2.64500 2745.0
2.65500 2581.0
2.66500 2554.0
2.67500 2439.0
2.68500 2387.0
2.69500 2322.0
2.70500 2172.0
2.71500 2135.0
2.72500 2136.0
2.73500 2094.0
2.74500 2105.0
2.75500 2044.0
2.76500 1962.0
2.77500 1903.0
2.78500 1963.0
2.79500 1904.0
2.80500 1887.0
2.81500 1913.0
2.82500 1875.0
2.83500 1914.0
2.84500 1808.0
2.85500 1670.0
2.86500 1583.0
2.87500 1508.0
2.88500 1397.0
2.89500 1396.0
2.90500 1308.0
2.91500 1236.0
2.92500 1196.0
2.93500 1236.0
2.94500 1239.0
2.95500 1234.0
2.96500 1188.0
2.97500 1139.0
2.98500 1180.0
2.99500 1183.0
3.00500 1249.0
3.01500 1248.0
3.02500 1197.0
3.03500 1229.0
3.04500 1155.0
3.05500 1105.0
3.06500 1066.0
3.07500 1045.0
3.08500 956.0
3.09500 972.0
3.10500 935.0
3.11500 929.0
3.12500 894.0
3.13500 954.0
3.14500 908.0
3.15500 873.0
3.16500 832.0
3.17500 859.0
3.18500 776.0
3.19500 794.0
3.20500 873.0
3.21500 855.0
3.22500 801.0
3.23500 808.0
3.24500 775.0
3.25500 755.0
3.26500 823.0
3.27500 749.0
3.28500 749.0
3.29500 740.0
3.30500 721.0
3.31500 679.0
3.32500 691.0
3.33500 656.0
3.34500 686.0
3.35500 717.0
3.36500 669.0
3.37500 630.0
3.38500 589.0
3.39500 572.0
3.40500 581.0
3.41500 510.0
3.42500 563.0
3.43500 526.0
3.44500 506.0
3.45500 543.0
3.46500 486.0
3.47500 602.0
3.48500 516.0
3.49500 510.0
3.50500 510.0
3.51500 505.0
3.52500 530.0
3.53500 534.0
3.54500 579.0
3.55500 651.0
3.56500 748.0
3.57500 706.0
3.58500 646.0
3.59500 562.0
3.60500 513.0
3.61500 474.0
3.62500 467.0
3.63500 437.0
3.64500 440.0
3.65500 455.0
3.66500 435.0
3.67500 459.0
3.68500 471.0
3.69500 484.0
3.70500 525.0
3.71500 517.0
3.72500 645.0
3.73500 623.0
3.74500 699.0
3.75500 772.0
3.76500 950.0
3.77500 1116.0
3.78500 1319.0
3.79500 1407.0
3.80500 1667.0
3.81500 1935.0
3.82500 2347.0
3.83500 2918.0
3.84500 3531.0
3.85500 4843.0
3.86500 6820.0
3.87500 10082.0
3.88500 15706.0
3.89500 25855.0
3.90500 43459.0
3.91500 82657.0
3.92500 178537.0
3.93500 373508.0
3.94500 633562.0
3.95500 779089.0
3.96500 679607.0
3.97500 440094.0
3.98500 247669.0
3.99500 138978.0
4.00500 88581.0
4.01500 57677.0
4.02500 38915.0
4.03500 27032.0
4.04500 19410.0
4.05500 15077.0
4.06500 12130.0
4.07500 10052.0
4.08500 8411.0
4.09500 7149.0
4.10500 6519.0
4.11500 5674.0
4.12500 5175.0
4.13500 4544.0
4.14500 4219.0
4.15500 3938.0
4.16500 3596.0
4.17500 3468.0
4.18500 3353.0
4.19500 3112.0
4.20500 3032.0
4.21500 2899.0
4.22500 2582.0
4.23500 2616.0
4.24500 2494.0
4.25500 2371.0
4.26500 2312.0
4.27500 2109.0
4.28500 1936.0
4.29500 1932.0
4.30500 1920.0
4.31500 1835.0
4.32500 1877.0
4.33500 1827.0
4.34500 1838.0
4.35500 1675.0
4.36500 1722.0
4.37500 1620.0
4.38500 1544.0
4.39500 1527.0
4.40500 1419.0
4.41500 1451.0
4.42500 1393.0
4.43500 1428.0
4.44500 1383.0
4.45500 1314.0
4.46500 1348.0
4.47500 1315.0
4.48500 1248.0
4.49500 1212.0
4.50500 1153.0
4.51500 1195.0
4.52500 1154.0
4.53500 1112.0
4.54500 1142.0
4.55500 1151.0
4.56500 1110.0
4.57500 1086.0
4.58500 1186.0
4.59500 1155.0
4.60500 1102.0
4.61500 1046.0
4.62500 1056.0
4.63500 1051.0
4.64500 1090.0
4.65500 1101.0
4.66500 1098.0
4.67500 1023.0
4.68500 1022.0
4.69500 963.0
4.70500 957.0
4.71500 867.0
4.72500 790.0
4.73500 838.0
4.74500 869.0
4.75500 871.0
4.76500 771.0
4.77500 839.0
4.78500 783.0
4.79500 768.0
4.80500 755.0
4.81500 816.0
4.82500 766.0
4.83500 734.0
4.84500 755.0
4.85500 712.0
4.86500 765.0
4.87500 760.0
4.88500 740.0
4.89500 675.0
4.90500 717.0
4.91500 654.0
4.92500 687.0
4.93500 695.0
4.94500 659.0
4.95500 733.0
4.96500 692.0
4.97500 612.0
4.98500 623.0
4.99500 673.0
5.00500 586.0
5.01500 613.0
5.02500 606.0
5.03500 615.0
5.04500 548.0
5.05500 589.0
5.06500 611.0
5.07500 546.0
5.08500 537.0
5.09500 540.0
5.10500 518.0
5.11500 537.0
5.12500 536.0
5.13500 558.0
5.14500 649.0
5.15500 541.0
5.16500 578.0
5.17500 498.0
5.18500 499.0
5.19500 541.0
5.20500 525.0
5.21500 529.0
5.22500 538.0
5.23500 525.0
5.24500 537.0
5.25500 615.0
5.26500 540.0
5.27500 497.0
5.28500 518.0
5.29500 507.0
5.30500 573.0
5.31500 534.0
5.32500 585.0
5.33500 530.0
5.34500 541.0
5.35500 496.0
5.36500 525.0
5.37500 488.0
5.38500 466.0
5.39500 469.0
5.40500 490.0
5.41500 524.0
5.42500 517.0
5.43500 484.0
5.44500 506.0
5.45500 543.0
5.46500 508.0
5.47500 519.0
5.48500 470.0
5.49500 500.0
5.50500 515.0
5.51500 493.0
5.52500 509.0
5.53500 586.0
5.54500 520.0
5.55500 555.0
5.56500 565.0
5.57500 510.0
5.58500 544.0
5.59500 524.0
5.60500 563.0
5.61500 580.0
5.62500 635.0
5.63500 696.0
5.64500 676.0
5.65500 653.0
5.66500 718.0
5.67500 709.0
5.68500 719.0
5.69500 755.0
5.70500 865.0
5.71500 902.0
5.72500 993.0
5.73500 1081.0
5.74500 1269.0
5.75500 1417.0
5.76500 1649.0
5.77500 1910.0
5.78500 2253.0
5.79500 2912.0
5.80500 3856.0
5.81500 5384.0
5.82500 8027.0
5.83500 12518.0
5.84500 20713.0
5.85500 36606.0
5.86500 61418.0
5.87500 84813.0
5.88500 91712.0
5.89500 78984.0
5.90500 57704.0
5.91500 38417.0
5.92500 25134.0
5.93500 17263.0
5.94500 11877.0
5.95500 8190.0
5.96500 5586.0
5.97500 3839.0
5.98500 2700.0
5.99500 1998.0
6.00500 1472.0
6.01500 1096.0
6.02500 894.0
6.03500 642.0
6.04500 525.0
6.05500 434.0
6.06500 352.0
6.07500 321.0
6.08500 331.0
6.09500 276.0
6.10500 237.0
6.11500 239.0
6.12500 183.0
6.13500 177.0
6.14500 181.0
6.15500 133.0
6.16500 166.0
6.17500 126.0
6.18500 129.0
6.19500 147.0
6.20500 118.0
6.21500 113.0
6.22500 94.0
6.23500 113.0
6.24500 121.0
6.25500 97.0
6.26500 95.0
6.27500 112.0
6.28500 99.0
6.29500 129.0
6.30500 133.0
6.31500 93.0
6.32500 120.0
6.33500 123.0
6.34500 115.0
6.35500 100.0
6.36500 109.0
6.37500 102.0
6.38500 107.0
6.39500 93.0
6.40500 90.0
6.41500 87.0
6.42500 87.0
6.43500 90.0
6.44500 103.0
6.45500 86.0
6.46500 94.0
6.47500 99.0
6.48500 102.0
6.49500 99.0
6.50500 95.0
6.51500 81.0
6.52500 114.0
6.53500 92.0
6.54500 92.0
6.55500 79.0
6.56500 85.0
6.57500 82.0
6.58500 88.0
6.59500 67.0
6.60500 70.0
6.61500 72.0
6.62500 70.0
6.63500 104.0
6.64500 80.0
6.65500 96.0
6.66500 71.0
6.67500 70.0
6.68500 44.0
6.69500 51.0
6.70500 52.0
6.71500 65.0
6.72500 75.0
6.73500 60.0
6.74500 107.0
6.75500 74.0
6.76500 84.0
6.77500 104.0
6.78500 88.0
6.79500 89.0
6.80500 69.0
6.81500 79.0
6.82500 75.0
6.83500 83.0
6.84500 119.0
6.85500 76.0
6.86500 84.0
6.87500 90.0
6.88500 71.0
6.89500 85.0
6.90500 97.0
6.91500 60.0
6.92500 111.0
6.93500 88.0
6.94500 70.0
6.95500 78.0
6.96500 60.0
6.97500 65.0
6.98500 83.0
6.99500 72.0
7.00500 81.0
7.01500 85.0
7.02500 107.0
7.03500 112.0
7.04500 81.0
7.05500 114.0
7.06500 93.0
7.07500 61.0
7.08500 60.0
7.09500 87.0
7.10500 72.0
7.11500 74.0
7.12500 86.0
7.13500 103.0
7.14500 105.0
7.15500 105.0
7.16500 104.0
7.17500 88.0
7.18500 94.0
7.19500 95.0
7.20500 83.0
7.21500 78.0
7.22500 83.0
7.23500 101.0
7.24500 77.0
7.25500 45.0
7.26500 71.0
7.27500 45.0
7.28500 49.0
7.29500 66.0
7.30500 53.0
7.31500 46.0
7.32500 52.0
7.33500 71.0
7.34500 85.0
7.35500 99.0
7.36500 77.0
7.37500 101.0
7.38500 94.0
7.39500 82.0
7.40500 101.0
7.41500 103.0
7.42500 134.0
7.43500 121.0
7.44500 126.0
7.45500 97.0
7.46500 112.0
7.47500 91.0
7.48500 101.0
7.49500 90.0
7.50500 114.0
7.51500 110.0
7.52500 104.0
7.53500 103.0
7.54500 111.0
7.55500 117.0
7.56500 156.0
7.57500 115.0
7.58500 136.0
7.59500 138.0
7.60500 129.0
7.61500 155.0
7.62500 152.0
7.63500 182.0
7.64500 192.0
7.65500 258.0
7.66500 254.0
7.67500 285.0
7.68500 336.0
7.69500 377.0
7.70500 459.0
7.71500 569.0
7.72500 709.0
7.73500 1018.0
7.74500 1513.0
7.75500 2179.0
7.76500 3337.0
7.77500 5135.0
7.78500 8253.0
7.79500 13793.0
7.80500 21276.0
7.81500 27107.0
7.82500 28996.0
7.83500 26342.0
7.84500 20853.0
7.85500 15360.0
7.86500 11178.0
7.87500 8453.0
7.88500 6355.0
7.89500 4824.0
7.90500 3823.0
7.91500 2887.0
7.92500 2183.0
7.93500 1632.0
7.94500 1269.0
7.95500 970.0
7.96500 821.0
7.97500 639.0
7.98500 571.0
7.99500 509.0
8.00500 429.0
8.01500 363.0
8.02500 325.0
8.03500 278.0
8.04500 259.0
8.05500 243.0
8.06500 232.0
8.07500 220.0
8.08500 186.0
8.09500 182.0
8.10500 169.0
8.11500 151.0
8.12500 180.0
8.13500 155.0
8.14500 171.0
8.15500 110.0
8.16500 116.0
8.17500 89.0
8.18500 88.0
8.19500 81.0
8.20500 90.0
8.21500 109.0
8.22500 106.0
8.23500 112.0
8.24500 126.0
8.25500 94.0
8.26500 81.0
8.27500 72.0
8.28500 85.0
8.29500 74.0
8.30500 76.0
8.31500 107.0
8.32500 104.0
8.33500 107.0
8.34500 105.0
8.35500 113.0
8.36500 76.0
8.37500 93.0
8.38500 56.0
8.39500 80.0
8.40500 85.0
8.41500 75.0
8.42500 107.0
8.43500 99.0
8.44500 77.0
8.45500 87.0
8.46500 100.0
8.47500 119.0
8.48500 93.0
8.49500 99.0
8.50500 114.0
8.51500 114.0
8.52500 94.0
8.53500 80.0
8.54500 93.0
8.55500 90.0
8.56500 99.0
8.57500 119.0
8.58500 100.0
8.59500 116.0
8.60500 101.0
8.61500 142.0
8.62500 121.0
8.63500 114.0
8.64500 133.0
8.65500 92.0
8.66500 80.0
8.67500 108.0
8.68500 78.0
8.69500 75.0
8.70500 85.0
8.71500 71.0
8.72500 87.0
8.73500 73.0
8.74500 60.0
8.75500 73.0
8.76500 63.0
8.77500 83.0
8.78500 81.0
8.79500 80.0
8.80500 89.0
8.81500 69.0
8.82500 104.0
8.83500 110.0
8.84500 104.0
8.85500 104.0
8.86500 109.0
8.87500 120.0
8.88500 81.0
8.89500 84.0
8.90500 76.0
8.91500 86.0
8.92500 76.0
8.93500 87.0
8.94500 74.0
8.95500 54.0
8.96500 76.0
8.97500 62.0
8.98500 89.0
8.99500 63.0
9.00500 52.0
9.01500 68.0
9.02500 74.0
9.03500 78.0
9.04500 64.0
9.05500 92.0
9.06500 76.0
9.07500 79.0
9.08500 96.0
9.09500 82.0
9.10500 74.0
9.11500 98.0
9.12500 102.0
9.13500 126.0
9.14500 111.0
9.15500 91.0
9.16500 95.0
9.17500 121.0
9.18500 124.0
9.19500 110.0
9.20500 78.0
9.21500 95.0
9.22500 129.0
9.23500 141.0
9.24500 122.0
9.25500 96.0
9.26500 96.0
9.27500 130.0
9.28500 109.0
9.29500 124.0
9.30500 119.0
9.31500 108.0
9.32500 127.0
9.33500 115.0
9.34500 120.0
9.35500 89.0
9.36500 86.0
9.37500 90.0
9.38500 95.0
9.39500 83.0
9.40500 67.0
9.41500 81.0
9.42500 89.0
9.43500 83.0
9.44500 85.0
9.45500 81.0
9.46500 49.0
9.47500 58.0
9.48500 61.0
9.49500 68.0
9.50500 76.0
9.51500 60.0
9.52500 55.0
9.53500 89.0
9.54500 92.0
9.55500 98.0
9.56500 109.0
9.57500 112.0
9.58500 95.0
9.59500 110.0
9.60500 112.0
9.61500 110.0
9.62500 107.0
9.63500 142.0
9.64500 164.0
9.65500 145.0
9.66500 159.0
9.67500 196.0
9.68500 206.0
9.69500 276.0
9.70500 361.0
9.71500 480.0
9.72500 614.0
9.73500 851.0
9.74500 1160.0
9.75500 1466.0
9.76500 1616.0
9.77500 1556.0
9.78500 1418.0
9.79500 1155.0
9.80500 944.0
9.81500 785.0
9.82500 626.0
9.83500 507.0
9.84500 406.0
9.85500 394.0
9.86500 297.0
9.87500 262.0
9.88500 211.0
9.89500 188.0
9.90500 165.0
9.91500 141.0
9.92500 131.0
9.93500 120.0
9.94500 100.0
9.95500 92.0
9.96500 101.0
9.97500 81.0
9.98500 91.0
9.99500 74.0
10.00500 82.0
10.01500 73.0
10.02500 73.0
10.03500 77.0
10.04500 73.0
10.05500 72.0
10.06500 61.0
10.07500 72.0
10.08500 85.0
10.09500 94.0
10.10500 93.0
10.11500 82.0
10.12500 82.0
10.13500 96.0
10.14500 73.0
10.15500 85.0
10.16500 81.0
10.17500 76.0
10.18500 96.0
10.19500 85.0
10.20500 91.0
10.21500 99.0
10.22500 72.0
10.23500 81.0
10.24500 92.0
10.25500 81.0
10.26500 94.0
10.27500 110.0
10.28500 70.0
10.29500 83.0
10.30500 76.0
10.31500 61.0
10.32500 69.0
10.33500 57.0
10.34500 57.0
10.35500 62.0
10.36500 86.0
10.37500 93.0
10.38500 79.0
10.39500 119.0
10.40500 106.0
10.41500 131.0
10.42500 141.0
10.43500 112.0
10.44500 112.0
10.45500 129.0
10.46500 132.0
10.47500 130.0
10.48500 152.0
10.49500 115.0
10.50500 137.0
10.51500 90.0
10.52500 97.0
10.53500 124.0
10.54500 170.0
10.55500 141.0
10.56500 154.0
10.57500 138.0
10.58500 171.0
10.59500 133.0
10.60500 157.0
10.61500 140.0
10.62500 136.0
10.63500 117.0
10.64500 181.0
10.65500 158.0
10.66500 168.0
10.67500 105.0
10.68500 130.0
10.69500 123.0
10.70500 88.0
10.71500 126.0
10.72500 107.0
10.73500 121.0
10.74500 61.0
10.75500 89.0
10.76500 94.0
10.77500 106.0
10.78500 124.0
10.79500 152.0
10.80500 151.0
10.81500 160.0
10.82500 171.0
10.83500 149.0
10.84500 151.0
10.85500 110.0
10.86500 69.0
10.87500 114.0
10.88500 164.0
10.89500 162.0
10.90500 134.0
10.91500 105.0
10.92500 103.0
10.93500 107.0
10.94500 122.0
10.95500 144.0
10.96500 120.0
10.97500 84.0
10.98500 104.0
10.99500 78.0
11.00500 92.0
11.01500 109.0
11.02500 94.0
11.03500 112.0
11.04500 76.0
11.05500 100.0
11.06500 98.0
11.07500 90.0
11.08500 94.0
11.09500 75.0
11.10500 104.0
11.11500 100.0
11.12500 135.0
11.13500 99.0
11.14500 103.0
11.15500 101.0
11.16500 176.0
11.17500 179.0
11.18500 162.0
11.19500 110.0
11.20500 87.0
11.21500 137.0
11.22500 112.0
11.23500 102.0
11.24500 105.0
11.25500 116.0
11.26500 117.0
11.27500 125.0
11.28500 116.0
11.29500 119.0
11.30500 89.0
11.31500 113.0
11.32500 106.0
11.33500 102.0
11.34500 74.0
11.35500 68.0
11.36500 75.0
11.37500 86.0
11.38500 62.0
11.39500 76.0
11.40500 65.0
11.41500 78.0
11.42500 51.0
11.43500 70.0
11.44500 53.0
11.45500 71.0
11.46500 99.0
11.47500 73.0
11.48500 88.0
11.49500 92.0
11.50500 146.0
11.51500 162.0
11.52500 176.0
11.53500 133.0
11.54500 150.0
11.55500 139.0
11.56500 166.0
11.57500 148.0
11.58500 151.0
11.59500 157.0
11.60500 155.0
11.61500 161.0
11.62500 163.0
11.63500 238.0
11.64500 227.0
11.65500 272.0
11.66500 322.0
11.67500 433.0
11.68500 554.0
11.69500 704.0
11.70500 1017.0
11.71500 1089.0
11.72500 1111.0
11.73500 1021.0
11.74500 874.0
11.75500 741.0
11.76500 666.0
11.77500 571.0
11.78500 515.0
11.79500 392.0
11.80500 372.0
11.81500 316.0
11.82500 273.0
11.83500 219.0
11.84500 208.0
11.85500 198.0
11.86500 171.0
11.87500 178.0
11.88500 181.0
11.89500 204.0
11.90500 158.0
11.91500 150.0
11.92500 284.0
11.93500 405.0
11.94500 319.0
11.95500 286.0
11.96500 327.0
11.97500 317.0
11.98500 366.0
11.99500 256.0
12.00500 164.0
12.01500 140.0
12.02500 158.0
12.03500 160.0
12.04500 198.0
12.05500 172.0
12.06500 176.0
12.07500 136.0
12.08500 136.0
12.09500 128.0
12.10500 118.0
12.11500 106.0
12.12500 126.0
12.13500 146.0
12.14500 116.0
12.15500 128.0
12.16500 122.0
12.17500 131.0
12.18500 102.0
12.19500 104.0
12.20500 92.0
12.21500 113.0
12.22500 137.0
12.23500 90.0
12.24500 84.0
12.25500 94.0
12.26500 61.0
12.27500 103.0
12.28500 97.0
12.29500 91.0
12.30500 90.0
12.31500 71.0
12.32500 62.0
12.33500 94.0
12.34500 110.0
12.35500 62.0
12.36500 88.0
12.37500 90.0
12.38500 59.0
12.39500 102.0
12.40500 108.0
12.41500 137.0
12.42500 110.0
12.43500 110.0
12.44500 119.0
12.45500 104.0
12.46500 93.0
12.47500 114.0
12.48500 133.0
12.49500 155.0
12.50500 149.0
12.51500 142.0
12.52500 140.0
12.53500 259.0
12.54500 124.0
12.55500 123.0
12.56500 149.0
12.57500 120.0
12.58500 178.0
12.59500 115.0
12.60500 100.0
12.61500 107.0
12.62500 74.0
12.63500 77.0
12.64500 99.0
12.65500 102.0
12.66500 108.0
12.67500 113.0
12.68500 133.0
12.69500 96.0
12.70500 89.0
12.71500 115.0
12.72500 88.0
12.73500 86.0
12.74500 71.0
12.75500 114.0
12.76500 89.0
12.77500 121.0
12.78500 167.0
12.79500 125.0
12.80500 168.0
12.81500 155.0
12.82500 118.0
12.83500 118.0
12.84500 107.0
12.85500 88.0
12.86500 123.0
12.87500 97.0
12.88500 117.0
12.89500 150.0
12.90500 128.0
12.91500 117.0
12.92500 95.0
12.93500 105.0
12.94500 135.0
12.95500 127.0
12.96500 120.0
12.97500 118.0
12.98500 135.0
12.99500 101.0
13.00500 99.0
13.01500 104.0
13.02500 84.0
13.03500 92.0
13.04500 99.0
13.05500 106.0
13.06500 89.0
13.07500 101.0
13.08500 78.0
13.09500 61.0
13.10500 68.0
13.11500 48.0
13.12500 61.0
13.13500 71.0
13.14500 77.0
13.15500 73.0
13.16500 70.0
13.17500 68.0
13.18500 59.0
13.19500 91.0
13.20500 86.0
13.21500 71.0
13.22500 112.0
13.23500 105.0
13.24500 79.0
13.25500 69.0
13.26500 64.0
13.27500 56.0
13.28500 69.0
13.29500 50.0
13.30500 67.0
13.31500 63.0
13.32500 57.0
13.33500 45.0
13.34500 35.0
13.35500 32.0
13.36500 43.0
13.37500 46.0
13.38500 49.0
13.39500 45.0
13.40500 61.0
13.41500 73.0
13.42500 79.0
13.43500 70.0
13.44500 54.0
13.45500 73.0
13.46500 35.0
13.47500 30.0
13.48500 51.0
13.49500 59.0
13.50500 53.0
13.51500 45.0
13.52500 62.0
13.53500 65.0
13.54500 49.0
13.55500 51.0
13.56500 46.0
13.57500 65.0
13.58500 64.0
13.59500 57.0
13.60500 74.0
13.61500 81.0
13.62500 66.0
13.63500 66.0
13.64500 94.0
13.65500 81.0
13.66500 119.0
13.67500 117.0
13.68500 136.0
13.69500 109.0
13.70500 132.0
13.71500 107.0
13.72500 118.0
13.73500 166.0
13.74500 123.0
13.75500 91.0
13.76500 63.0
13.77500 87.0
13.78500 78.0
13.79500 100.0
13.80500 88.0
13.81500 84.0
13.82500 75.0
13.83500 98.0
13.84500 72.0
13.85500 78.0
13.86500 58.0
13.87500 90.0
13.88500 93.0
13.89500 80.0
13.90500 88.0
13.91500 77.0
13.92500 95.0
13.93500 64.0
13.94500 87.0
13.95500 95.0
13.96500 90.0
13.97500 83.0
13.98500 92.0
13.99500 56.0
