0.00500 799122522112.0
0.01500 894363566080.0
0.02500 739876536320.0
0.03500 485710921728.0
0.04500 286292836352.0
0.05500 179141836800.0
0.06500 164934991872.0
0.07500 185750913024.0
0.08500 210102321152.0
0.09500 233532997632.0
0.10500 256684212224.0
0.11500 279382622208.0
0.12500 302535475200.0
0.13500 324264034304.0
0.14500 346837647360.0
0.15500 366296301568.0
0.16500 384929693696.0
0.17500 404743716864.0
0.18500 424786296832.0
0.19500 443367555072.0
0.20500 459083251712.0
0.21500 475397554176.0
0.22500 492249481216.0
0.23500 506315833344.0
0.24500 520442150912.0
0.25500 534063185920.0
0.26500 545096302592.0
0.27500 561032855552.0
0.28500 575526010880.0
0.29500 587568381952.0
0.30500 601884065792.0
0.31500 610077835264.0
0.32500 622913126400.0
0.33500 635581890560.0
0.34500 649321054208.0
0.35500 659166068736.0
0.36500 665306464256.0
0.37500 677002477568.0
0.38500 685434798080.0
0.39500 690527469568.0
0.40500 700237545472.0
0.41500 708645683200.0
0.42500 714288267264.0
0.43500 719391621120.0
0.44500 728257986560.0
0.45500 732689465344.0
0.46500 736722878464.0
0.47500 741801132032.0
0.48500 745363275776.0
0.49500 748381667328.0
0.50500 757409316864.0
0.51500 759096672256.0
0.52500 763653128192.0
0.53500 763072282624.0
0.54500 765725376512.0
0.55500 764533407744.0
0.56500 765022502912.0
0.57500 764587868160.0
0.58500 762976206848.0
0.59500 757602910208.0
0.60500 758540337152.0
0.61500 754484903936.0
0.62500 750081736704.0
0.63500 743040745472.0
0.64500 731861483520.0
0.65500 714794270720.0
0.66500 690998804480.0
0.67500 655834808320.0
0.68500 603854602240.0
0.69500 533801795584.0
0.70500 454233587712.0
0.71500 386826698752.0
0.72500 331173855232.0
0.73500 287959711744.0
0.74500 252559523840.0
0.75500 224626917376.0
0.76500 200623161344.0
0.77500 181744762880.0
0.78500 164152967168.0
0.79500 148715896832.0
0.80500 135374266368.0
0.81500 124175818752.0
0.82500 114102452224.0
0.83500 104205410304.0
0.84500 95883526144.0
0.85500 89683664896.0
0.86500 83145719808.0
0.87500 77050667008.0
0.88500 72423489536.0
0.89500 67914588160.0
0.90500 64060153856.0
0.91500 60299640832.0
0.92500 57183322112.0
0.93500 53780197376.0
0.94500 50564849664.0
0.95500 48111783936.0
0.96500 45637713920.0
0.97500 43577958400.0
0.98500 41355014144.0
0.99500 39417729024.0
1.00500 37496918016.0
1.01500 35347869696.0
1.02500 33543176192.0
1.03500 32124370944.0
1.04500 30089371648.0
1.05500 28696969216.0
1.06500 27318075392.0
1.07500 25430939648.0
1.08500 24710711296.0
1.09500 23405645824.0
1.10500 22115276800.0
1.11500 21466736640.0
1.12500 20239175680.0
1.13500 19321284608.0
1.14500 18959114240.0
1.15500 17821337600.0
1.16500 17202597888.0
1.17500 16846764032.0
1.18500 15975456768.0
1.19500 15378689024.0
1.20500 15098177536.0
1.21500 14484389888.0
1.22500 13900474368.0
1.23500 13922305024.0
1.24500 13439612928.0
1.25500 12819979264.0
1.26500 12731021312.0
1.27500 12206247936.0
1.28500 11609326592.0
1.29500 11555777536.0
1.30500 11091559424.0
1.31500 10393400320.0
1.32500 10265997312.0
1.33500 9855537152.0
1.34500 9231134720.0
1.35500 9062727680.0
1.36500 8921968640.0
1.37500 8432423424.0
1.38500 8107831808.0
1.39500 8039431168.0
1.40500 7528643072.0
1.41500 7357942272.0
1.42500 7499176448.0
1.43500 6986038784.0
1.44500 6596766208.0
1.45500 6693486592.0
1.46500 6540127232.0
1.47500 6228765184.0
1.48500 6323219968.0
1.49500 6308787200.0
1.50500 5918395904.0
1.51500 5736731136.0
1.52500 5980867072.0
1.53500 5784769536.0
1.54500 5641367040.0
1.55500 5778685952.0
1.56500 5670693888.0
1.57500 5481155072.0
1.58500 5556841984.0
1.59500 5503293440.0
1.60500 5269813760.0
1.61500 5244304896.0
1.62500 5432543232.0
1.63500 5180435456.0
1.64500 4908455424.0
1.65500 5051801600.0
1.66500 4886093312.0
1.67500 4620797952.0
1.68500 4723392000.0
1.69500 4804714496.0
1.70500 4539390976.0
1.71500 4393709568.0
1.72500 4511756800.0
1.73500 4419483648.0
1.74500 4329042944.0
1.75500 4697477632.0
1.76500 4863577600.0
1.77500 4684779008.0
1.78500 4993484288.0
1.79500 5316649472.0
1.80500 5237312512.0
1.81500 5391776768.0
1.82500 6086621696.0
1.83500 6384726016.0
1.84500 6399773696.0
1.85500 7228874240.0
1.86500 8044451840.0
1.87500 8326976512.0
1.88500 10117938176.0
1.89500 12966094848.0
1.90500 14595976192.0
1.91500 16868189184.0
1.92500 23289835520.0
1.93500 32004225024.0
1.94500 44306939904.0
1.95500 75987386368.0
1.96500 133496373248.0
1.97500 189343907840.0
1.98500 218173718528.0
1.99500 202416816128.0
2.00500 155204993024.0
2.01500 105032695808.0
2.02500 72381939712.0
2.03500 55503683584.0
2.04500 42547630080.0
2.05500 32035061760.0
2.06500 26669604864.0
2.07500 22258204672.0
2.08500 18241755136.0
2.09500 15657816064.0
2.10500 13402413056.0
2.11500 11772614656.0
2.12500 10011469824.0
2.13500 8819360768.0
2.14500 8006761984.0
2.15500 6839112704.0
2.16500 6159762944.0
2.17500 5603691520.0
2.18500 4913126400.0
2.19500 4696484864.0
2.20500 4126386176.0
2.21500 3814436608.0
2.22500 3497998080.0
2.23500 3168036096.0
2.24500 3052603904.0
2.25500 2762638848.0
2.26500 2559059200.0
2.27500 2496728064.0
2.28500 2321342208.0
2.29500 2196274432.0
2.30500 2062871424.0
2.31500 1974038656.0
2.32500 1879024640.0
2.33500 1726965632.0
2.34500 1717190144.0
2.35500 1657837824.0
2.36500 1504855936.0
2.37500 1448482432.0
2.38500 1376319744.0
2.39500 1316002432.0
2.40500 1233435008.0
2.41500 1141525632.0
2.42500 1120925696.0
2.43500 1011521088.0
2.44500 950252800.0
2.45500 928645952.0
2.46500 846889664.0
2.47500 802403328.0
2.48500 776097600.0
2.49500 741274944.0
2.50500 700746368.0
2.51500 646946112.0
2.52500 643323968.0
2.53500 613032448.0
2.54500 574363968.0
2.55500 589104128.0
2.56500 568993728.0
2.57500 529779776.0
2.58500 505152192.0
2.59500 491362976.0
2.60500 494999072.0
2.61500 464357952.0
2.62500 463672672.0
2.63500 470651200.0
2.64500 431800864.0
2.65500 420724736.0
2.66500 414501408.0
2.67500 401187680.0
2.68500 387538336.0
2.69500 374084768.0
2.70500 388880896.0
2.71500 372826112.0
2.72500 339751584.0
2.73500 336590976.0
2.74500 330983008.0
2.75500 312956320.0
2.76500 296901536.0
2.77500 284384960.0
2.78500 282762720.0
2.79500 265421312.0
2.80500 257897392.0
2.81500 263001904.0
2.82500 242178240.0
2.83500 236080784.0
2.84500 234388608.0
2.85500 233843184.0
2.86500 223704064.0
2.87500 213061472.0
2.88500 225927680.0
2.89500 219326752.0
2.90500 201761600.0
2.91500 204740400.0
2.92500 205062048.0
2.93500 192601424.0
2.94500 187007424.0
2.95500 184657936.0
2.96500 192811200.0
2.97500 179175824.0
2.98500 172351136.0
2.99500 173134304.0
3.00500 166351568.0
3.01500 164757280.0
3.02500 167750080.0
3.03500 169959712.0
3.04500 163316832.0
3.05500 150478592.0
3.06500 150562512.0
3.07500 145737680.0
3.08500 137052992.0
3.09500 137612400.0
3.10500 134409840.0
3.11500 132465920.0
3.12500 122172960.0
3.13500 111502408.0
3.14500 110006008.0
3.15500 104286144.0
3.16500 103712760.0
3.17500 111068872.0
3.18500 104453968.0
3.19500 100552152.0
3.20500 97125824.0
3.21500 99545232.0
3.22500 95251832.0
3.23500 92440848.0
3.24500 96552440.0
3.25500 95699352.0
3.26500 88413168.0
3.27500 86189552.0
3.28500 85797976.0
3.29500 85434368.0
3.30500 84161728.0
3.31500 80315856.0
3.32500 83546392.0
3.33500 77379008.0
3.34500 76553888.0
3.35500 78595696.0
3.36500 76511936.0
3.37500 79029232.0
3.38500 79826384.0
3.39500 83616312.0
3.40500 81336760.0
3.41500 72749968.0
3.42500 72568168.0
3.43500 71183648.0
3.44500 67281832.0
3.45500 67757328.0
3.46500 67351760.0
3.47500 71351472.0
3.48500 65603636.0
3.49500 60121516.0
3.50500 59352340.0
3.51500 57534288.0
3.52500 53982100.0
3.53500 58233540.0
3.54500 58205568.0
3.55500 54527516.0
3.56500 50989312.0
3.57500 51282996.0
3.58500 52331872.0
3.59500 51450816.0
3.60500 52261944.0
3.61500 57995796.0
3.62500 55967968.0
3.63500 59687980.0
3.64500 64680624.0
3.65500 66316872.0
3.66500 68568456.0
3.67500 83406544.0
3.68500 113516248.0
3.69500 119641672.0
3.70500 112970832.0
3.71500 123012064.0
3.72500 154995760.0
3.73500 195678112.0
3.74500 251967744.0
3.75500 382014272.0
3.76500 582139584.0
3.77500 745750144.0
3.78500 774657152.0
3.79500 667741824.0
3.80500 517612832.0
3.81500 400698208.0
3.82500 321095616.0
3.83500 270162240.0
3.84500 224207520.0
3.85500 185371168.0
3.86500 155093648.0
3.87500 128172528.0
3.88500 111180752.0
3.89500 98118760.0
3.90500 85042784.0
3.91500 78973296.0
3.92500 72022752.0
3.93500 65044236.0
3.94500 61450088.0
3.95500 57855944.0
3.96500 54527516.0
3.97500 48248248.0
3.98500 48206296.0
3.99500 48723740.0
4.00500 44150644.0
4.01500 45241476.0
4.02500 43605232.0
4.03500 39479656.0
4.04500 39563564.0
4.05500 39619504.0
4.06500 37228072.0
4.07500 38290928.0
4.08500 35843556.0
4.09500 35382048.0
4.10500 34375128.0
4.11500 31969710.0
4.12500 33857684.0
4.13500 31997680.0
4.14500 30487300.0
4.15500 28809100.0
4.16500 30221584.0
4.17500 27494510.0
4.18500 25774356.0
4.19500 24851344.0
4.20500 26431650.0
4.21500 26445636.0
4.22500 26054056.0
4.23500 25047136.0
4.24500 24194050.0
4.25500 24249990.0
4.26500 22907430.0
4.27500 21886524.0
4.28500 20460056.0
4.29500 19131480.0
4.30500 19914640.0
4.31500 19089524.0
4.32500 18460200.0
4.33500 16963804.0
4.34500 16516285.0
4.35500 16684105.0
4.36500 17523204.0
4.37500 17928770.0
4.38500 17243504.0
4.39500 17830876.0
4.40500 18208470.0
4.41500 19019600.0
4.42500 19439150.0
4.43500 18418244.0
4.44500 16809970.0
4.45500 16935836.0
4.46500 17005760.0
4.47500 15928915.0
4.48500 16110720.0
4.49500 16236585.0
4.50500 16320495.0
4.51500 15719140.0
4.52500 14977935.0
4.53500 13998985.0
4.54500 13453570.0
4.55500 11873265.0
4.56500 14488460.0
4.57500 13747255.0
4.58500 13089960.0
4.59500 12306800.0
4.60500 13565450.0
4.61500 12348755.0
4.62500 12712365.0
4.63500 10572660.0
4.64500 10796420.0
4.65500 12180935.0
4.66500 11271910.0
4.67500 10810405.0
4.68500 9999275.0
4.69500 11146045.0
4.70500 10209050.0
4.71500 11215970.0
4.72500 11146045.0
4.73500 10670555.0
4.74500 11551610.0
4.75500 11495670.0
4.76500 10922285.0
4.77500 11761385.0
4.78500 12166950.0
4.79500 11495670.0
4.80500 11146045.0
4.81500 10642585.0
4.82500 11020180.0
4.83500 9971305.0
4.84500 10922285.0
4.85500 10824390.0
4.86500 10670555.0
4.87500 10404840.0
4.88500 8363030.0
4.89500 10181080.0
4.90500 10320930.0
4.91500 8796565.0
4.92500 7621825.0
4.93500 8558820.0
4.94500 8223180.0
4.95500 8251150.0
4.96500 8111300.0
4.97500 7999420.0
4.98500 7188290.0
4.99500 6908590.0
5.00500 6097460.0
5.01500 7314155.0
5.02500 7300170.0
5.03500 7020470.0
5.04500 7467990.0
5.05500 7677765.0
5.06500 7314155.0
5.07500 8572805.0
5.08500 8628745.0
5.09500 9300025.0
5.10500 9300025.0
5.11500 10558675.0
5.12500 9300025.0
5.13500 9915365.0
5.14500 8838520.0
5.15500 8614760.0
5.16500 8167240.0
5.17500 7733705.0
5.18500 6964530.0
5.19500 6894605.0
5.20500 6642875.0
5.21500 6656860.0
5.22500 5943625.0
5.23500 5635955.0
5.24500 6181370.0
5.25500 5566030.0
5.26500 5538060.0
5.27500 5747835.0
5.28500 5845730.0
5.29500 4866780.0
5.30500 5216405.0
5.31500 5272345.0
5.32500 4796855.0
5.33500 4475200.0
5.34500 4321365.0
5.35500 4265425.0
5.36500 4083620.0
5.37500 4041665.0
5.38500 3692040.0
5.39500 4027680.0
5.40500 4153545.0
5.41500 3859860.0
5.42500 4754900.0
5.43500 4908735.0
5.44500 4111590.0
5.45500 4055650.0
5.46500 4223470.0
5.47500 4908735.0
5.48500 4838810.0
5.49500 4992645.0
5.50500 4922720.0
5.51500 5635955.0
5.52500 6027535.0
5.53500 7579870.0
5.54500 9118220.0
5.55500 11118075.0
5.56500 14726205.0
5.57500 25159016.0
5.58500 49059380.0
5.59500 80259912.0
5.60500 102552008.0
5.61500 106481792.0
5.62500 90035432.0
5.63500 69085904.0
5.64500 51730516.0
5.65500 40780260.0
5.66500 36207164.0
5.67500 30976776.0
5.68500 27662330.0
5.69500 24697510.0
5.70500 21299156.0
5.71500 18096590.0
5.72500 16166660.0
5.73500 16292525.0
5.74500 13775225.0
5.75500 13803195.0
5.76500 12600485.0
5.77500 11160030.0
5.78500 10810405.0
5.79500 10125140.0
5.80500 9062280.0
5.81500 9174160.0
5.82500 8824535.0
5.83500 8852505.0
5.84500 7104380.0
5.85500 7146335.0
5.86500 7146335.0
5.87500 7663780.0
5.88500 7565885.0
5.89500 7244230.0
5.90500 6698815.0
5.91500 6055505.0
5.92500 6628890.0
5.93500 6530995.0
5.94500 6447085.0
5.95500 6251295.0
5.96500 5719865.0
5.97500 5719865.0
5.98500 5594000.0
5.99500 5034600.0
6.00500 5202420.0
6.01500 5034600.0
6.02500 5090540.0
6.03500 4740915.0
6.04500 4237455.0
6.05500 4405275.0
6.06500 4335350.0
6.07500 4838810.0
6.08500 5482120.0
6.09500 4601065.0
6.10500 4139560.0
6.11500 4055650.0
6.12500 4559110.0
6.13500 4545125.0
6.14500 4838810.0
6.15500 4363320.0
6.16500 4377305.0
6.17500 4321365.0
6.18500 3887830.0
6.19500 3999710.0
6.20500 4041665.0
6.21500 3761965.0
6.22500 3034745.0
6.23500 3678055.0
6.24500 3733995.0
6.25500 3887830.0
6.26500 3692040.0
6.27500 3482265.0
6.28500 4055650.0
6.29500 3468280.0
6.30500 3566175.0
6.31500 3286475.0
6.32500 2964820.0
6.33500 2936850.0
6.34500 2824970.0
6.35500 3412340.0
6.36500 3216550.0
6.37500 3216550.0
6.38500 2838955.0
6.39500 3817905.0
6.40500 3859860.0
6.41500 3664070.0
6.42500 3342415.0
6.43500 2643165.0
6.44500 2223615.0
6.45500 2545270.0
6.46500 2461360.0
6.47500 2894895.0
6.48500 3118655.0
6.49500 3426325.0
6.50500 2824970.0
6.51500 3048730.0
6.52500 3160610.0
6.53500 2783015.0
6.54500 3006775.0
6.55500 2629180.0
6.56500 3188580.0
6.57500 2489330.0
6.58500 3104670.0
6.59500 2601210.0
6.60500 2531285.0
6.61500 2559255.0
6.62500 2419405.0
6.63500 2880910.0
6.64500 2559255.0
6.65500 2265570.0
6.66500 2852940.0
6.67500 2279555.0
6.68500 2405420.0
6.69500 2363465.0
6.70500 2783015.0
6.71500 3328430.0
6.72500 3006775.0
6.73500 2335495.0
6.74500 2545270.0
6.75500 2349480.0
6.76500 3160610.0
6.77500 2741060.0
6.78500 2559255.0
6.79500 2517300.0
6.80500 2223615.0
6.81500 2489330.0
6.82500 2265570.0
6.83500 2181660.0
6.84500 1971885.0
6.85500 2251585.0
6.86500 2013840.0
6.87500 2111735.0
6.88500 1929930.0
6.89500 2559255.0
6.90500 3006775.0
6.91500 2265570.0
6.92500 1929930.0
6.93500 2643165.0
6.94500 1999855.0
6.95500 2783015.0
6.96500 2405420.0
6.97500 2727075.0
6.98500 2964820.0
6.99500 2992790.0
7.00500 2321510.0
7.01500 2573240.0
7.02500 2489330.0
7.03500 2167675.0
7.04500 1999855.0
7.05500 2824970.0
7.06500 2475345.0
7.07500 2321510.0
7.08500 2391435.0
7.09500 2866925.0
7.10500 2251585.0
7.11500 2195645.0
7.12500 1790080.0
7.13500 1929930.0
7.14500 2433390.0
7.15500 2237600.0
7.16500 2139705.0
7.17500 2237600.0
7.18500 2545270.0
7.19500 1971885.0
7.20500 1748125.0
7.21500 1678200.0
7.22500 1720155.0
7.23500 1999855.0
7.24500 2027825.0
7.25500 1594290.0
7.26500 2181660.0
7.27500 2936850.0
7.28500 2377450.0
7.29500 2559255.0
7.30500 2545270.0
7.31500 1706170.0
7.32500 1622260.0
7.33500 2251585.0
7.34500 2279555.0
7.35500 2181660.0
7.36500 2097750.0
7.37500 2139705.0
7.38500 1846020.0
7.39500 3174595.0
7.40500 3440310.0
7.41500 4237455.0
7.42500 6433100.0
7.43500 9761530.0
7.44500 14278685.0
7.45500 17243504.0
7.46500 18865764.0
7.47500 16768015.0
7.48500 14068910.0
7.49500 10950255.0
7.50500 10097170.0
7.51500 8377015.0
7.52500 7495960.0
7.53500 6642875.0
7.54500 7132350.0
7.55500 6223325.0
7.56500 6754755.0
7.57500 5062570.0
7.58500 4768885.0
7.59500 4894750.0
7.60500 4573095.0
7.61500 3985725.0
7.62500 3971740.0
7.63500 4489185.0
7.64500 3650085.0
7.65500 3789935.0
7.66500 2908880.0
7.67500 2783015.0
7.68500 3272490.0
7.69500 2531285.0
7.70500 2629180.0
7.71500 2545270.0
7.72500 1860005.0
7.73500 1776095.0
7.74500 2027825.0
7.75500 1915945.0
7.76500 2055795.0
7.77500 1734140.0
7.78500 1636245.0
7.79500 1482410.0
7.80500 1510380.0
7.81500 1636245.0
7.82500 1580305.0
7.83500 1552335.0
7.84500 1734140.0
7.85500 1440455.0
7.86500 1608275.0
7.87500 1300605.0
7.88500 1762110.0
7.89500 1636245.0
7.90500 1608275.0
7.91500 1748125.0
7.92500 1734140.0
7.93500 1943915.0
7.94500 1580305.0
7.95500 1314590.0
7.96500 1496395.0
7.97500 1160755.0
7.98500 1258650.0
7.99500 1076845.0
