0.22350 138.0
0.23350 137.0
0.24350 128.0
0.25350 144.0
0.26350 120.0
0.27350 125.0
0.28350 127.0
0.29350 167.0
0.30350 181.0
0.31350 169.0
0.32350 153.0
0.33350 161.0
0.34350 166.0
0.35350 187.0
0.36350 210.0
0.37350 186.0
0.38350 184.0
0.39350 137.0
0.40350 225.0
0.41350 193.0
0.42350 215.0
0.43350 218.0
0.44350 217.0
0.45350 247.0
0.46350 223.0
0.47350 256.0
0.48350 249.0
0.49350 291.0
0.50350 362.0
0.51350 356.0
0.52350 367.0
0.53350 392.0
0.54350 464.0
0.55350 576.0
0.56350 519.0
0.57350 512.0
0.58350 616.0
0.59350 638.0
0.60350 632.0
0.61350 703.0
0.62350 738.0
0.63350 751.0
0.64350 741.0
0.65350 816.0
0.66350 841.0
0.67350 905.0
0.68350 906.0
0.69350 965.0
0.70350 920.0
0.71350 983.0
0.72350 1001.0
0.73350 953.0
0.74350 1050.0
0.75350 1104.0
0.76350 1129.0
0.77350 1176.0
0.78350 1219.0
0.79350 1258.0
0.80350 1155.0
0.81350 1175.0
0.82350 1267.0
0.83350 1188.0
0.84350 1343.0
0.85350 1317.0
0.86350 1255.0
0.87350 1295.0
0.88350 1263.0
0.89350 1237.0
0.90350 1373.0
0.91350 1237.0
0.92350 1259.0
0.93350 1261.0
0.94350 1275.0
0.95350 1300.0
0.96350 1295.0
0.97350 1277.0
0.98350 1379.0
0.99350 1356.0
1.00350 1310.0
1.01350 1400.0
1.02350 1323.0
1.03350 1430.0
1.04350 1386.0
1.05350 1399.0
1.06350 1403.0
1.07350 1436.0
1.08350 1579.0
1.09350 1507.0
1.10350 1513.0
1.11350 1525.0
1.12350 1608.0
1.13350 1716.0
1.14350 1788.0
1.15350 1914.0
1.16350 1862.0
1.17350 2032.0
1.18350 2214.0
1.19350 2991.0
1.20350 12788.0
1.21350 97568.0
1.22350 692850.0
1.23350 1489680.0
1.24350 1404323.0
1.25350 599387.0
1.26350 58172.0
1.27350 4024.0
1.28350 2524.0
1.29350 2089.0
1.30350 1857.0
1.31350 1673.0
1.32350 1627.0
1.33350 1516.0
1.34350 1531.0
1.35350 1461.0
1.36350 1412.0
1.37350 1444.0
1.38350 1365.0
1.39350 1352.0
1.40350 1259.0
1.41350 1284.0
1.42350 1182.0
1.43350 1235.0
1.44350 1235.0
1.45350 1236.0
1.46350 1130.0
1.47350 1114.0
1.48350 1144.0
1.49350 1160.0
1.50350 1175.0
1.51350 1142.0
1.52350 1149.0
1.53350 1124.0
1.54350 989.0
1.55350 1032.0
1.56350 983.0
1.57350 1008.0
1.58350 937.0
1.59350 1005.0
1.60350 951.0
1.61350 937.0
1.62350 875.0
1.63350 894.0
1.64350 868.0
1.65350 883.0
1.66350 812.0
1.67350 856.0
1.68350 827.0
1.69350 801.0
1.70350 819.0
1.71350 690.0
1.72350 717.0
1.73350 737.0
1.74350 668.0
1.75350 618.0
1.76350 678.0
1.77350 656.0
1.78350 637.0
1.79350 604.0
1.80350 615.0
1.81350 502.0
1.82350 492.0
1.83350 484.0
1.84350 492.0
1.85350 498.0
1.86350 503.0
1.87350 483.0
1.88350 546.0
1.89350 330.0
1.90350 374.0
1.91350 443.0
1.92350 432.0
1.93350 298.0
1.94350 304.0
1.95350 306.0
1.96350 334.0
1.97350 277.0
1.98350 278.0
1.99350 324.0
2.00350 338.0
2.01350 233.0
2.02350 307.0
2.03350 237.0
2.04350 222.0
2.05350 232.0
2.06350 203.0
2.07350 152.0
2.08350 193.0
2.09350 156.0
2.10350 199.0
2.11350 179.0
2.12350 187.0
2.13350 145.0
2.14350 165.0
2.15350 161.0
2.16350 194.0
2.17350 172.0
2.18350 128.0
2.19350 149.0
2.20350 116.0
