0.00500 37652448.0
0.01500 46888580.0
0.02500 42270940.0
0.03500 29744036.0
0.04500 16506582.0
0.05500 7506767.0
0.06500 3265921.0
0.07500 2111537.0
0.08500 2208660.0
0.09500 2461022.0
0.10500 2771785.0
0.11500 3093102.0
0.12500 3360819.0
0.13500 3736046.0
0.14500 4033347.0
0.15500 4316588.0
0.16500 4611430.0
0.17500 4853876.0
0.18500 5226407.0
0.19500 5546085.0
0.20500 5833485.0
0.21500 6175082.0
0.22500 6418261.0
0.23500 6808698.0
0.24500 7186740.0
0.25500 7403013.0
0.26500 7710421.0
0.27500 7990054.0
0.28500 8280634.0
0.29500 8644887.0
0.30500 8948750.0
0.31500 9266498.0
0.32500 9508465.0
0.33500 9828503.0
0.34500 10249995.0
0.35500 10417036.0
0.36500 10705965.0
0.37500 10971719.0
0.38500 11171639.0
0.39500 11586565.0
0.40500 11700015.0
0.41500 11937270.0
0.42500 12241423.0
0.43500 12474090.0
0.44500 12735990.0
0.45500 12895563.0
0.46500 13071056.0
0.47500 13404090.0
0.48500 13605211.0
0.49500 13891173.0
0.50500 14020574.0
0.51500 14129055.0
0.52500 14319034.0
0.53500 14388570.0
0.54500 14517505.0
0.55500 14616851.0
0.56500 14636199.0
0.57500 14724927.0
0.58500 14735182.0
0.59500 14712811.0
0.60500 14619590.0
0.61500 14468291.0
0.62500 14418995.0
0.63500 14243563.0
0.64500 14025390.0
0.65500 13647356.0
0.66500 13120999.0
0.67500 12659025.0
0.68500 11972331.0
0.69500 11082042.0
0.70500 10263747.0
0.71500 9336501.0
0.72500 8448644.0
0.73500 7601962.0
0.74500 6770105.0
0.75500 6109751.0
0.76500 5483840.0
0.77500 4910003.0
0.78500 4450247.0
0.79500 4028645.0
0.80500 3675932.0
0.81500 3370413.0
0.82500 3106186.0
0.83500 2901552.0
0.84500 2672028.0
0.85500 2497246.0
0.86500 2329015.0
0.87500 2168730.0
0.88500 2042246.0
0.89500 1905833.0
0.90500 1798011.0
0.91500 1696435.0
0.92500 1596687.0
0.93500 1526574.0
0.94500 1431664.0
0.95500 1356177.0
0.96500 1284862.0
0.97500 1218668.0
0.98500 1160314.0
0.99500 1101447.0
1.00500 1053032.0
1.01500 1011385.0
1.02500 960395.0
1.03500 922238.0
1.04500 878970.0
1.05500 840018.0
1.06500 809396.0
1.07500 776702.0
1.08500 749779.0
1.09500 722304.0
1.10500 698739.0
1.11500 671582.0
1.12500 644389.0
1.13500 621891.0
1.14500 604895.0
1.15500 586447.0
1.16500 570659.0
1.17500 555236.0
1.18500 542792.0
1.19500 528662.0
1.20500 512834.0
1.21500 497019.0
1.22500 485866.0
1.23500 472922.0
1.24500 463382.0
1.25500 454323.0
1.26500 442346.0
1.27500 433656.0
1.28500 429197.0
1.29500 419233.0
1.30500 414193.0
1.31500 407231.0
1.32500 403628.0
1.33500 403147.0
1.34500 402327.0
1.35500 402213.0
1.36500 401758.0
1.37500 399381.0
1.38500 402816.0
1.39500 411015.0
1.40500 416630.0
1.41500 428145.0
1.42500 431398.0
1.43500 444755.0
1.44500 453919.0
1.45500 459418.0
1.46500 463324.0
1.47500 470921.0
1.48500 487326.0
1.49500 516159.0
1.50500 549113.0
1.51500 595882.0
1.52500 649722.0
1.53500 722950.0
1.54500 818958.0
1.55500 948007.0
1.56500 1141063.0
1.57500 1417686.0
1.58500 1851488.0
1.59500 2559579.0
1.60500 3543616.0
1.61500 4758811.0
1.62500 5700110.0
1.63500 5792113.0
1.64500 5049050.0
1.65500 3906253.0
1.66500 2728248.0
1.67500 1803886.0
1.68500 1204472.0
1.69500 805661.0
1.70500 563539.0
1.71500 408230.0
1.72500 303163.0
1.73500 232012.0
1.74500 177962.0
1.75500 140887.0
1.76500 111541.0
1.77500 90423.0
1.78500 74535.0
1.79500 61449.0
1.80500 49789.0
1.81500 39507.0
1.82500 30780.0
1.83500 24769.0
1.84500 20599.0
1.85500 17890.0
1.86500 16038.0
1.87500 14169.0
1.88500 12519.0
1.89500 11455.0
1.90500 10242.0
1.91500 9250.0
1.92500 8341.0
1.93500 7569.0
1.94500 7071.0
1.95500 6556.0
1.96500 6014.0
1.97500 5591.0
1.98500 5330.0
1.99500 4844.0
2.00500 4572.0
2.01500 4346.0
2.02500 4155.0
2.03500 3970.0
2.04500 3827.0
2.05500 3540.0
2.06500 3470.0
2.07500 3354.0
2.08500 3310.0
2.09500 3195.0
2.10500 3084.0
2.11500 2967.0
2.12500 2906.0
2.13500 2812.0
2.14500 2761.0
2.15500 2682.0
2.16500 2603.0
2.17500 2617.0
2.18500 2496.0
2.19500 2471.0
2.20500 2407.0
2.21500 2369.0
2.22500 2292.0
2.23500 2250.0
2.24500 2214.0
2.25500 2301.0
2.26500 2178.0
2.27500 2145.0
2.28500 2114.0
2.29500 2269.0
2.30500 2079.0
2.31500 2066.0
2.32500 2103.0
2.33500 2077.0
2.34500 1990.0
2.35500 2069.0
2.36500 2056.0
2.37500 1988.0
2.38500 1985.0
2.39500 1929.0
2.40500 1914.0
2.41500 1979.0
2.42500 1897.0
2.43500 1897.0
2.44500 1907.0
2.45500 1750.0
2.46500 1840.0
2.47500 1763.0
2.48500 1801.0
2.49500 1647.0
2.50500 1774.0
2.51500 1750.0
2.52500 1598.0
2.53500 1609.0
2.54500 1516.0
2.55500 1369.0
2.56500 1349.0
2.57500 1301.0
2.58500 1243.0
2.59500 1189.0
2.60500 1214.0
2.61500 1195.0
2.62500 1125.0
2.63500 1121.0
2.64500 1073.0
2.65500 1167.0
2.66500 1105.0
2.67500 1051.0
2.68500 1087.0
2.69500 1138.0
2.70500 1059.0
2.71500 1183.0
2.72500 1067.0
2.73500 1069.0
2.74500 1083.0
2.75500 1099.0
2.76500 1107.0
2.77500 1040.0
2.78500 1008.0
2.79500 1012.0
2.80500 1009.0
2.81500 1025.0
2.82500 925.0
2.83500 762.0
2.84500 769.0
2.85500 743.0
2.86500 888.0
2.87500 824.0
2.88500 989.0
2.89500 913.0
2.90500 963.0
2.91500 1023.0
2.92500 1157.0
2.93500 1459.0
2.94500 1847.0
2.95500 2454.0
2.96500 3268.0
2.97500 4841.0
2.98500 7924.0
2.99500 16910.0
3.00500 39541.0
3.01500 74643.0
3.02500 107114.0
3.03500 112881.0
3.04500 91850.0
3.05500 63397.0
3.06500 41925.0
3.07500 28872.0
3.08500 20749.0
3.09500 15818.0
3.10500 12949.0
3.11500 10944.0
3.12500 9685.0
3.13500 8627.0
3.14500 7508.0
3.15500 6837.0
3.16500 6339.0
3.17500 5798.0
3.18500 5337.0
3.19500 5196.0
3.20500 5030.0
3.21500 5024.0
3.22500 4562.0
3.23500 4200.0
3.24500 3737.0
3.25500 3534.0
3.26500 3371.0
3.27500 3279.0
3.28500 3201.0
3.29500 3224.0
3.30500 3100.0
3.31500 3083.0
3.32500 2881.0
3.33500 2839.0
3.34500 2832.0
3.35500 2680.0
3.36500 2602.0
3.37500 2607.0
3.38500 2695.0
3.39500 2522.0
3.40500 2597.0
3.41500 2540.0
3.42500 2467.0
3.43500 2309.0
3.44500 2226.0
3.45500 2195.0
3.46500 2183.0
3.47500 2184.0
3.48500 2180.0
3.49500 2219.0
3.50500 2140.0
3.51500 2108.0
3.52500 2009.0
3.53500 2055.0
3.54500 2072.0
3.55500 1974.0
3.56500 1940.0
3.57500 1938.0
3.58500 1927.0
3.59500 1731.0
3.60500 1749.0
3.61500 1711.0
3.62500 1760.0
3.63500 1722.0
3.64500 1732.0
3.65500 1605.0
3.66500 1734.0
3.67500 1671.0
3.68500 1617.0
3.69500 1619.0
3.70500 1528.0
3.71500 1523.0
3.72500 1582.0
3.73500 1520.0
3.74500 1511.0
3.75500 1507.0
3.76500 1434.0
3.77500 1415.0
3.78500 1389.0
3.79500 1389.0
3.80500 1341.0
3.81500 1345.0
3.82500 1315.0
3.83500 1205.0
3.84500 1243.0
3.85500 1286.0
3.86500 1257.0
3.87500 1247.0
3.88500 1215.0
3.89500 1200.0
3.90500 1209.0
3.91500 1170.0
3.92500 1105.0
3.93500 1056.0
3.94500 1115.0
3.95500 1037.0
3.96500 1097.0
3.97500 991.0
3.98500 1055.0
3.99500 1028.0
4.00500 1057.0
4.01500 937.0
4.02500 954.0
4.03500 918.0
4.04500 913.0
4.05500 870.0
4.06500 914.0
4.07500 997.0
4.08500 911.0
4.09500 863.0
4.10500 847.0
4.11500 838.0
4.12500 759.0
4.13500 846.0
4.14500 818.0
4.15500 756.0
4.16500 782.0
4.17500 730.0
4.18500 722.0
4.19500 664.0
4.20500 681.0
4.21500 677.0
4.22500 639.0
4.23500 647.0
4.24500 639.0
4.25500 688.0
4.26500 736.0
4.27500 790.0
4.28500 840.0
4.29500 922.0
4.30500 798.0
4.31500 728.0
4.32500 687.0
4.33500 711.0
4.34500 757.0
4.35500 664.0
4.36500 679.0
4.37500 672.0
4.38500 595.0
4.39500 655.0
4.40500 707.0
4.41500 911.0
4.42500 1169.0
4.43500 1891.0
4.44500 4077.0
4.45500 8309.0
4.46500 13854.0
4.47500 17034.0
4.48500 15588.0
4.49500 11888.0
4.50500 7951.0
4.51500 5267.0
4.52500 3497.0
4.53500 2583.0
4.54500 2010.0
4.55500 1671.0
4.56500 1493.0
4.57500 1250.0
4.58500 1106.0
4.59500 977.0
4.60500 893.0
4.61500 824.0
4.62500 752.0
4.63500 752.0
4.64500 750.0
4.65500 727.0
4.66500 632.0
4.67500 569.0
4.68500 480.0
4.69500 486.0
4.70500 462.0
4.71500 481.0
4.72500 445.0
4.73500 452.0
4.74500 506.0
4.75500 415.0
4.76500 453.0
4.77500 429.0
4.78500 454.0
4.79500 420.0
4.80500 444.0
4.81500 434.0
4.82500 396.0
4.83500 387.0
4.84500 389.0
4.85500 361.0
4.86500 352.0
4.87500 322.0
4.88500 289.0
4.89500 286.0
4.90500 278.0
4.91500 289.0
4.92500 296.0
4.93500 283.0
4.94500 298.0
4.95500 292.0
4.96500 286.0
4.97500 302.0
4.98500 249.0
4.99500 237.0
5.00500 255.0
5.01500 250.0
5.02500 243.0
5.03500 257.0
5.04500 245.0
5.05500 232.0
5.06500 227.0
5.07500 216.0
5.08500 221.0
5.09500 212.0
5.10500 210.0
5.11500 192.0
5.12500 197.0
5.13500 193.0
5.14500 173.0
5.15500 163.0
5.16500 182.0
5.17500 141.0
5.18500 167.0
5.19500 163.0
5.20500 184.0
5.21500 145.0
5.22500 163.0
5.23500 179.0
5.24500 187.0
5.25500 123.0
5.26500 151.0
5.27500 155.0
5.28500 142.0
5.29500 175.0
5.30500 126.0
5.31500 125.0
5.32500 127.0
5.33500 139.0
5.34500 144.0
5.35500 117.0
5.36500 135.0
5.37500 161.0
5.38500 133.0
5.39500 127.0
5.40500 118.0
5.41500 113.0
5.42500 113.0
5.43500 112.0
5.44500 109.0
5.45500 101.0
5.46500 117.0
5.47500 92.0
5.48500 122.0
5.49500 113.0
5.50500 88.0
5.51500 120.0
5.52500 123.0
5.53500 140.0
5.54500 135.0
5.55500 139.0
5.56500 129.0
5.57500 108.0
5.58500 97.0
5.59500 107.0
5.60500 108.0
5.61500 119.0
5.62500 103.0
5.63500 123.0
5.64500 116.0
5.65500 111.0
5.66500 104.0
5.67500 113.0
5.68500 120.0
5.69500 119.0
5.70500 102.0
5.71500 111.0
5.72500 98.0
5.73500 111.0
5.74500 116.0
5.75500 98.0
5.76500 114.0
5.77500 120.0
5.78500 114.0
5.79500 130.0
5.80500 129.0
5.81500 117.0
5.82500 106.0
5.83500 117.0
5.84500 146.0
5.85500 154.0
5.86500 162.0
5.87500 195.0
5.88500 241.0
5.89500 318.0
5.90500 464.0
5.91500 743.0
5.92500 992.0
5.93500 1207.0
5.94500 1131.0
5.95500 966.0
5.96500 655.0
5.97500 503.0
5.98500 397.0
5.99500 342.0
6.00500 279.0
6.01500 250.0
6.02500 223.0
6.03500 204.0
6.04500 152.0
6.05500 161.0
6.06500 197.0
6.07500 168.0
6.08500 174.0
6.09500 182.0
6.10500 176.0
6.11500 151.0
6.12500 140.0
6.13500 144.0
6.14500 135.0
6.15500 141.0
6.16500 132.0
6.17500 146.0
6.18500 146.0
6.19500 112.0
6.20500 105.0
6.21500 134.0
6.22500 125.0
6.23500 160.0
6.24500 135.0
6.25500 144.0
6.26500 140.0
6.27500 122.0
6.28500 142.0
6.29500 127.0
6.30500 159.0
6.31500 141.0
6.32500 157.0
6.33500 184.0
6.34500 152.0
6.35500 135.0
6.36500 147.0
6.37500 148.0
6.38500 131.0
6.39500 136.0
6.40500 112.0
6.41500 134.0
6.42500 157.0
6.43500 162.0
6.44500 174.0
6.45500 181.0
6.46500 182.0
6.47500 179.0
6.48500 208.0
6.49500 190.0
6.50500 197.0
6.51500 155.0
6.52500 183.0
6.53500 148.0
6.54500 151.0
6.55500 152.0
6.56500 153.0
6.57500 177.0
6.58500 170.0
6.59500 186.0
6.60500 189.0
6.61500 165.0
6.62500 173.0
6.63500 168.0
6.64500 173.0
6.65500 199.0
6.66500 224.0
6.67500 236.0
6.68500 245.0
6.69500 227.0
6.70500 269.0
6.71500 268.0
6.72500 242.0
6.73500 241.0
6.74500 207.0
6.75500 186.0
6.76500 185.0
6.77500 209.0
6.78500 242.0
6.79500 223.0
6.80500 225.0
6.81500 222.0
6.82500 212.0
6.83500 232.0
6.84500 224.0
6.85500 220.0
6.86500 194.0
6.87500 209.0
6.88500 211.0
6.89500 179.0
6.90500 195.0
6.91500 172.0
6.92500 216.0
6.93500 214.0
6.94500 227.0
6.95500 258.0
6.96500 183.0
6.97500 219.0
6.98500 190.0
6.99500 191.0
7.00500 207.0
7.01500 181.0
7.02500 188.0
7.03500 214.0
7.04500 211.0
7.05500 215.0
7.06500 222.0
7.07500 285.0
7.08500 256.0
7.09500 230.0
7.10500 225.0
7.11500 193.0
7.12500 182.0
7.13500 182.0
7.14500 129.0
7.15500 148.0
7.16500 129.0
7.17500 137.0
7.18500 146.0
7.19500 157.0
7.20500 185.0
7.21500 225.0
7.22500 211.0
7.23500 219.0
7.24500 234.0
7.25500 246.0
7.26500 258.0
7.27500 237.0
7.28500 260.0
7.29500 221.0
7.30500 232.0
7.31500 238.0
7.32500 224.0
7.33500 252.0
7.34500 269.0
7.35500 338.0
7.36500 339.0
7.37500 344.0
7.38500 343.0
7.39500 515.0
7.40500 560.0
7.41500 554.0
7.42500 499.0
7.43500 484.0
7.44500 390.0
7.45500 345.0
7.46500 310.0
7.47500 243.0
7.48500 221.0
7.49500 234.0
7.50500 205.0
7.51500 205.0
7.52500 189.0
7.53500 241.0
7.54500 247.0
7.55500 252.0
7.56500 194.0
7.57500 196.0
7.58500 206.0
7.59500 200.0
7.60500 211.0
7.61500 241.0
7.62500 316.0
7.63500 339.0
7.64500 304.0
7.65500 284.0
7.66500 256.0
7.67500 263.0
7.68500 294.0
7.69500 254.0
7.70500 264.0
7.71500 290.0
7.72500 229.0
7.73500 235.0
7.74500 209.0
7.75500 230.0
7.76500 191.0
7.77500 179.0
7.78500 153.0
7.79500 176.0
7.80500 200.0
7.81500 201.0
7.82500 199.0
7.83500 184.0
7.84500 190.0
7.85500 163.0
7.86500 179.0
7.87500 186.0
7.88500 121.0
7.89500 152.0
7.90500 138.0
7.91500 110.0
7.92500 141.0
7.93500 144.0
7.94500 155.0
7.95500 138.0
7.96500 141.0
7.97500 141.0
7.98500 138.0
7.99500 188.0
