0.01000 9379595.0
0.02000 8790535.0
0.03000 6975077.0
0.04000 5009824.0
0.05000 3019112.0
0.06000 1633113.0
0.07000 1120219.0
0.08000 1131017.0
0.09000 1241779.0
0.10000 1383081.0
0.11000 1519726.0
0.12000 1646478.0
0.13000 1803097.0
0.14000 1908049.0
0.15000 2040829.0
0.16000 2157143.0
0.17000 2269893.0
0.18000 2412066.0
0.19000 2511561.0
0.20000 2629224.0
0.21000 2779409.0
0.22000 2886252.0
0.23000 3005093.0
0.24000 3102004.0
0.25000 3192536.0
0.26000 3293900.0
0.27000 3403411.0
0.28000 3506874.0
0.29000 3590925.0
0.30000 3670482.0
0.31000 3782130.0
0.32000 3860177.0
0.33000 3971845.0
0.34000 4053697.0
0.35000 4127211.0
0.36000 4223227.0
0.37000 4300546.0
0.38000 4383844.0
0.39000 4488501.0
0.40000 4516572.0
0.41000 4625922.0
0.42000 4708379.0
0.43000 4760646.0
0.44000 4853532.0
0.45000 4898313.0
0.46000 4915849.0
0.47000 4965104.0
0.48000 5001172.0
0.49000 5099490.0
0.50000 5108645.0
0.51000 5202947.0
0.52000 5277806.0
0.53000 5313349.0
0.54000 5398980.0
0.55000 5428105.0
0.56000 5479305.0
0.57000 5533104.0
0.58000 5559751.0
0.59000 5615380.0
0.60000 5623210.0
0.61000 5676759.0
0.62000 5703019.0
0.63000 5683435.0
0.64000 5735519.0
0.65000 5739086.0
0.66000 5723197.0
0.67000 5800287.0
0.68000 5755694.0
0.69000 5794224.0
0.70000 5802893.0
0.71000 5718831.0
0.72000 5704178.0
0.73000 5599645.0
0.74000 5479853.0
0.75000 5289941.0
0.76000 4894647.0
0.77000 4314112.0
0.78000 3580760.0
0.79000 2920935.0
0.80000 2439880.0
0.81000 2048229.0
0.82000 1772909.0
0.83000 1552813.0
0.84000 1375551.0
0.85000 1252327.0
0.86000 1125230.0
0.87000 1034907.0
0.88000 946711.0
0.89000 872453.0
0.90000 813423.0
0.91000 749909.0
0.92000 697766.0
0.93000 650319.0
0.94000 606748.0
0.95000 572405.0
0.96000 537190.0
0.97000 507250.0
0.98000 481366.0
0.99000 458961.0
1.00000 441120.0
1.01000 420281.0
1.02000 399488.0
1.03000 380226.0
1.04000 363803.0
1.05000 350159.0
1.06000 338955.0
1.07000 324468.0
1.08000 317294.0
1.09000 309160.0
1.10000 304768.0
1.11000 305101.0
1.12000 300162.0
1.13000 297826.0
1.14000 293304.0
1.15000 297681.0
1.16000 315423.0
1.17000 336188.0
1.18000 368685.0
1.19000 411260.0
1.20000 478779.0
1.21000 612963.0
1.22000 841776.0
1.23000 1221045.0
1.24000 1557832.0
1.25000 1458887.0
1.26000 900490.0
1.27000 376505.0
1.28000 128121.0
1.29000 54781.0
1.30000 33237.0
1.31000 25346.0
1.32000 22873.0
1.33000 22904.0
1.34000 24115.0
1.35000 25353.0
1.36000 26907.0
1.37000 28132.0
1.38000 28622.0
1.39000 28986.0
1.40000 29028.0
1.41000 28632.0
1.42000 28612.0
1.43000 28503.0
1.44000 28786.0
1.45000 28696.0
1.46000 28549.0
1.47000 28327.0
1.48000 27629.0
1.49000 27089.0
1.50000 26367.0
1.51000 25632.0
1.52000 25226.0
1.53000 24732.0
1.54000 25055.0
1.55000 23994.0
1.56000 23723.0
1.57000 23220.0
1.58000 22084.0
1.59000 21670.0
1.60000 21358.0
1.61000 20661.0
1.62000 20354.0
1.63000 19779.0
1.64000 19198.0
1.65000 18722.0
1.66000 18037.0
1.67000 18092.0
1.68000 17782.0
1.69000 17719.0
1.70000 17271.0
1.71000 16525.0
1.72000 16575.0
1.73000 16441.0
1.74000 16257.0
1.75000 15907.0
1.76000 15212.0
1.77000 14972.0
1.78000 14774.0
1.79000 14662.0
1.80000 14567.0
1.81000 14013.0
1.82000 13949.0
1.83000 13488.0
1.84000 13366.0
1.85000 13471.0
1.86000 13163.0
1.87000 13166.0
1.88000 13129.0
1.89000 12495.0
1.90000 12621.0
1.91000 12602.0
1.92000 12912.0
1.93000 13174.0
1.94000 13217.0
1.95000 13211.0
1.96000 13416.0
1.97000 13501.0
1.98000 13427.0
1.99000 13944.0
2.00000 15364.0
2.01000 18054.0
2.02000 20764.0
2.03000 24110.0
2.04000 26524.0
2.05000 31346.0
2.06000 40196.0
2.07000 55707.0
2.08000 87016.0
2.09000 141424.0
2.10000 231049.0
2.11000 293711.0
2.12000 232741.0
2.13000 118009.0
2.14000 48085.0
2.15000 21628.0
2.16000 11343.0
2.17000 7263.0
2.18000 4562.0
2.19000 3545.0
2.20000 2760.0
2.21000 2641.0
2.22000 2260.0
2.23000 2087.0
2.24000 2022.0
2.25000 1770.0
2.26000 1754.0
2.27000 1654.0
2.28000 1645.0
2.29000 1586.0
2.30000 1613.0
2.31000 1735.0
2.32000 1706.0
2.33000 1745.0
2.34000 1684.0
2.35000 1640.0
2.36000 1527.0
2.37000 1586.0
2.38000 1432.0
2.39000 1486.0
2.40000 1480.0
2.41000 1483.0
2.42000 1446.0
2.43000 1398.0
2.44000 1388.0
2.45000 1477.0
2.46000 1495.0
2.47000 1386.0
2.48000 1343.0
2.49000 1254.0
2.50000 1251.0
2.51000 1242.0
2.52000 1143.0
2.53000 1236.0
2.54000 1224.0
2.55000 1254.0
2.56000 1231.0
2.57000 1120.0
2.58000 1162.0
2.59000 1105.0
2.60000 1154.0
2.61000 1087.0
2.62000 1069.0
2.63000 1034.0
2.64000 1078.0
2.65000 1131.0
2.66000 1102.0
2.67000 1062.0
2.68000 1078.0
2.69000 1114.0
2.70000 1091.0
2.71000 1075.0
2.72000 1083.0
2.73000 1029.0
2.74000 986.0
2.75000 1043.0
2.76000 937.0
2.77000 969.0
2.78000 935.0
2.79000 967.0
2.80000 975.0
2.81000 961.0
2.82000 901.0
2.83000 928.0
2.84000 1029.0
2.85000 1092.0
2.86000 1158.0
2.87000 1096.0
2.88000 1127.0
2.89000 1119.0
2.90000 1049.0
2.91000 1070.0
2.92000 1261.0
2.93000 1536.0
2.94000 1903.0
2.95000 2522.0
2.96000 2908.0
2.97000 3110.0
2.98000 3785.0
2.99000 5095.0
3.00000 7235.0
3.01000 11553.0
3.02000 17475.0
3.03000 28372.0
3.04000 42376.0
3.05000 48664.0
3.06000 38103.0
3.07000 21806.0
3.08000 10596.0
3.09000 5168.0
3.10000 2733.0
3.11000 1763.0
3.12000 1199.0
3.13000 902.0
3.14000 710.0
3.15000 597.0
3.16000 471.0
3.17000 388.0
3.18000 343.0
3.19000 313.0
3.20000 282.0
3.21000 277.0
3.22000 247.0
3.23000 262.0
3.24000 229.0
3.25000 237.0
3.26000 234.0
3.27000 235.0
3.28000 210.0
3.29000 168.0
3.30000 159.0
3.31000 142.0
3.32000 144.0
3.33000 156.0
3.34000 135.0
3.35000 141.0
3.36000 182.0
3.37000 157.0
3.38000 143.0
3.39000 139.0
3.40000 159.0
3.41000 144.0
3.42000 123.0
3.43000 150.0
3.44000 138.0
3.45000 137.0
3.46000 122.0
3.47000 130.0
3.48000 130.0
3.49000 131.0
3.50000 137.0
3.51000 127.0
3.52000 113.0
3.53000 121.0
3.54000 113.0
3.55000 118.0
3.56000 104.0
3.57000 112.0
3.58000 88.0
3.59000 106.0
3.60000 108.0
3.61000 137.0
3.62000 127.0
3.63000 115.0
3.64000 119.0
3.65000 134.0
3.66000 111.0
3.67000 103.0
3.68000 93.0
3.69000 114.0
3.70000 110.0
3.71000 109.0
3.72000 111.0
3.73000 92.0
3.74000 105.0
3.75000 114.0
3.76000 132.0
3.77000 126.0
3.78000 111.0
3.79000 110.0
3.80000 136.0
3.81000 146.0
3.82000 122.0
3.83000 121.0
3.84000 116.0
3.85000 115.0
3.86000 130.0
3.87000 138.0
3.88000 243.0
3.89000 309.0
3.90000 389.0
3.91000 510.0
3.92000 584.0
3.93000 691.0
3.94000 864.0
3.95000 1346.0
3.96000 2078.0
3.97000 3306.0
3.98000 5294.0
3.99000 7403.0
4.00000 9904.0
4.01000 11201.0
4.02000 9800.0
4.03000 6864.0
4.04000 4042.0
4.05000 2243.0
4.06000 1179.0
4.07000 712.0
4.08000 487.0
4.09000 378.0
4.10000 289.0
4.11000 222.0
4.12000 206.0
4.13000 155.0
4.14000 140.0
4.15000 158.0
4.16000 141.0
4.17000 90.0
4.18000 118.0
4.19000 87.0
4.20000 90.0
4.21000 95.0
4.22000 86.0
4.23000 79.0
4.24000 66.0
4.25000 69.0
4.26000 36.0
4.27000 55.0
4.28000 41.0
4.29000 37.0
4.30000 47.0
4.31000 62.0
4.32000 49.0
4.33000 54.0
4.34000 38.0
4.35000 40.0
4.36000 41.0
4.37000 36.0
4.38000 38.0
4.39000 32.0
4.40000 31.0
4.41000 42.0
4.42000 33.0
4.43000 36.0
4.44000 32.0
4.45000 42.0
4.46000 22.0
4.47000 30.0
4.48000 38.0
4.49000 37.0
4.50000 33.0
4.51000 27.0
4.52000 28.0
4.53000 30.0
4.54000 24.0
4.55000 30.0
4.56000 32.0
4.57000 21.0
4.58000 24.0
4.59000 38.0
4.60000 29.0
4.61000 17.0
4.62000 20.0
4.63000 44.0
4.64000 30.0
4.65000 21.0
4.66000 28.0
4.67000 21.0
4.68000 31.0
4.69000 24.0
4.70000 25.0
4.71000 33.0
4.72000 21.0
4.73000 30.0
4.74000 17.0
4.75000 21.0
4.76000 23.0
4.77000 37.0
4.78000 30.0
4.79000 30.0
4.80000 22.0
4.81000 30.0
4.82000 23.0
4.83000 34.0
4.84000 31.0
4.85000 38.0
4.86000 64.0
4.87000 61.0
4.88000 99.0
4.89000 100.0
4.90000 120.0
4.91000 168.0
4.92000 321.0
4.93000 457.0
4.94000 700.0
4.95000 952.0
4.96000 1236.0
4.97000 1474.0
4.98000 1744.0
4.99000 1826.0
5.00000 1519.0
5.01000 983.0
5.02000 664.0
5.03000 377.0
5.04000 197.0
5.05000 145.0
5.06000 126.0
5.07000 101.0
5.08000 75.0
5.09000 61.0
5.10000 62.0
5.11000 40.0
5.12000 50.0
5.13000 61.0
5.14000 55.0
5.15000 31.0
5.16000 45.0
5.17000 37.0
5.18000 40.0
5.19000 41.0
5.20000 38.0
5.21000 34.0
5.22000 52.0
5.23000 47.0
5.24000 50.0
5.25000 51.0
5.26000 63.0
5.27000 40.0
5.28000 35.0
5.29000 37.0
5.30000 37.0
5.31000 30.0
5.32000 28.0
5.33000 33.0
5.34000 40.0
5.35000 46.0
5.36000 49.0
5.37000 40.0
5.38000 32.0
5.39000 40.0
5.40000 49.0
5.41000 34.0
5.42000 24.0
5.43000 40.0
5.44000 49.0
5.45000 25.0
5.46000 35.0
5.47000 41.0
5.48000 35.0
5.49000 37.0
5.50000 32.0
5.51000 23.0
5.52000 37.0
5.53000 31.0
5.54000 27.0
5.55000 17.0
5.56000 18.0
5.57000 27.0
5.58000 30.0
5.59000 30.0
5.60000 12.0
5.61000 28.0
5.62000 19.0
5.63000 19.0
5.64000 17.0
5.65000 23.0
5.66000 13.0
5.67000 20.0
5.68000 30.0
5.69000 19.0
5.70000 13.0
5.71000 16.0
5.72000 29.0
5.73000 29.0
5.74000 25.0
5.75000 27.0
5.76000 18.0
5.77000 22.0
5.78000 28.0
5.79000 18.0
5.80000 41.0
5.81000 25.0
5.82000 28.0
5.83000 27.0
5.84000 21.0
5.85000 36.0
5.86000 27.0
5.87000 18.0
5.88000 35.0
5.89000 39.0
5.90000 58.0
5.91000 69.0
5.92000 86.0
5.93000 105.0
5.94000 105.0
5.95000 146.0
5.96000 141.0
5.97000 173.0
5.98000 147.0
5.99000 129.0
6.00000 77.0
6.01000 61.0
6.02000 44.0
6.03000 44.0
6.04000 30.0
6.05000 37.0
6.06000 28.0
6.07000 33.0
6.08000 30.0
6.09000 26.0
6.10000 33.0
6.11000 35.0
6.12000 36.0
6.13000 24.0
6.14000 18.0
6.15000 27.0
6.16000 22.0
6.17000 25.0
6.18000 22.0
6.19000 25.0
6.20000 31.0
6.21000 30.0
6.22000 18.0
6.23000 27.0
6.24000 31.0
6.25000 25.0
6.26000 27.0
6.27000 21.0
6.28000 31.0
6.29000 21.0
6.30000 20.0
6.31000 17.0
6.32000 32.0
6.33000 31.0
6.34000 28.0
6.35000 26.0
6.36000 20.0
6.37000 20.0
6.38000 19.0
6.39000 26.0
6.40000 27.0
6.41000 23.0
6.42000 25.0
6.43000 28.0
6.44000 29.0
6.45000 17.0
6.46000 24.0
6.47000 15.0
6.48000 18.0
6.49000 17.0
6.50000 13.0
6.51000 16.0
6.52000 25.0
6.53000 15.0
6.54000 23.0
6.55000 12.0
6.56000 11.0
6.57000 20.0
6.58000 24.0
6.59000 23.0
6.60000 22.0
6.61000 36.0
6.62000 21.0
6.63000 28.0
6.64000 19.0
6.65000 24.0
6.66000 25.0
6.67000 16.0
6.68000 23.0
6.69000 29.0
6.70000 28.0
6.71000 23.0
6.72000 34.0
6.73000 31.0
6.74000 24.0
6.75000 20.0
6.76000 17.0
6.77000 25.0
6.78000 25.0
6.79000 14.0
6.80000 13.0
6.81000 21.0
6.82000 32.0
6.83000 26.0
6.84000 26.0
6.85000 30.0
6.86000 18.0
6.87000 22.0
6.88000 19.0
6.89000 28.0
6.90000 29.0
6.91000 27.0
6.92000 27.0
6.93000 39.0
6.94000 44.0
6.95000 41.0
6.96000 25.0
6.97000 46.0
6.98000 36.0
6.99000 33.0
7.00000 40.0
7.01000 23.0
7.02000 25.0
7.03000 30.0
7.04000 26.0
7.05000 35.0
7.06000 24.0
7.07000 35.0
7.08000 30.0
7.09000 24.0
7.10000 8.0
7.11000 18.0
7.12000 25.0
7.13000 33.0
7.14000 14.0
7.15000 28.0
7.16000 15.0
7.17000 31.0
7.18000 19.0
7.19000 14.0
7.20000 16.0
7.21000 27.0
7.22000 18.0
7.23000 22.0
7.24000 13.0
7.25000 19.0
7.26000 14.0
7.27000 27.0
7.28000 17.0
7.29000 21.0
7.30000 22.0
7.31000 20.0
7.32000 15.0
7.33000 10.0
7.34000 20.0
7.35000 17.0
7.36000 14.0
7.37000 13.0
7.38000 28.0
7.39000 28.0
7.40000 17.0
7.41000 28.0
7.42000 17.0
7.43000 22.0
7.44000 36.0
7.45000 19.0
7.46000 23.0
7.47000 30.0
7.48000 41.0
7.49000 22.0
7.50000 17.0
7.51000 26.0
7.52000 16.0
7.53000 30.0
7.54000 24.0
7.55000 21.0
7.56000 31.0
7.57000 32.0
7.58000 32.0
7.59000 21.0
7.60000 29.0
7.61000 31.0
7.62000 46.0
7.63000 33.0
7.64000 26.0
7.65000 9.0
7.66000 24.0
7.67000 44.0
7.68000 27.0
7.69000 28.0
7.70000 23.0
7.71000 52.0
7.72000 36.0
7.73000 42.0
7.74000 25.0
7.75000 34.0
7.76000 30.0
7.77000 27.0
7.78000 31.0
7.79000 25.0
7.80000 33.0
7.81000 28.0
7.82000 30.0
7.83000 20.0
7.84000 31.0
7.85000 26.0
7.86000 22.0
7.87000 23.0
7.88000 24.0
7.89000 30.0
7.90000 22.0
7.91000 19.0
7.92000 41.0
7.93000 24.0
7.94000 14.0
7.95000 41.0
7.96000 24.0
7.97000 18.0
7.98000 24.0
7.99000 38.0
8.00000 31.0
8.01000 21.0
8.02000 29.0
8.03000 18.0
