0.00500 36485988.0
0.01500 46984440.0
0.02500 43847804.0
0.03500 33171086.0
0.04500 19930314.0
0.05500 9449999.0
0.06500 3915728.0
0.07500 2345827.0
0.08500 2331400.0
0.09500 2670934.0
0.10500 3000420.0
0.11500 3295288.0
0.12500 3645065.0
0.13500 3942032.0
0.14500 4351169.0
0.15500 4687718.0
0.16500 4957876.0
0.17500 5360369.0
0.18500 5680532.0
0.19500 6078022.0
0.20500 6404426.0
0.21500 6591378.0
0.22500 7020234.0
0.23500 7312795.0
0.24500 7759485.0
0.25500 8023403.0
0.26500 8220573.0
0.27500 8680825.0
0.28500 9057275.0
0.29500 9420284.0
0.30500 9708132.0
0.31500 9815655.0
0.32500 10279808.0
0.33500 10656556.0
0.34500 10952577.0
0.35500 11346885.0
0.36500 11481609.0
0.37500 11822331.0
0.38500 12209085.0
0.39500 12389115.0
0.40500 12776734.0
0.41500 12881770.0
0.42500 13140801.0
0.43500 13431165.0
0.44500 13619443.0
0.45500 13908005.0
0.46500 14017705.0
0.47500 14255962.0
0.48500 14696584.0
0.49500 14758544.0
0.50500 14981082.0
0.51500 15009130.0
0.52500 15067572.0
0.53500 15387802.0
0.54500 15507320.0
0.55500 15637416.0
0.56500 15679819.0
0.57500 15598471.0
0.58500 15828022.0
0.59500 15726687.0
0.60500 15794011.0
0.61500 15757712.0
0.62500 15525157.0
0.63500 15443544.0
0.64500 15080537.0
0.65500 14732065.0
0.66500 14354419.0
0.67500 13693104.0
0.68500 13208122.0
0.69500 12483832.0
0.70500 11709923.0
0.71500 10809546.0
0.72500 9762981.0
0.73500 8890727.0
0.74500 7980811.0
0.75500 7111198.0
0.76500 6438689.0
0.77500 5739610.0
0.78500 5219373.0
0.79500 4742465.0
0.80500 4320743.0
0.81500 3963333.0
0.82500 3606184.0
0.83500 3320856.0
0.84500 3092656.0
0.85500 2869055.0
0.86500 2685515.0
0.87500 2508815.0
0.88500 2349096.0
0.89500 2200233.0
0.90500 2078807.0
0.91500 1953248.0
0.92500 1849435.0
0.93500 1748886.0
0.94500 1670586.0
0.95500 1583101.0
0.96500 1500195.0
0.97500 1424006.0
0.98500 1358078.0
0.99500 1304609.0
1.00500 1249125.0
1.01500 1197412.0
1.02500 1145841.0
1.03500 1105546.0
1.04500 1069100.0
1.05500 1028567.0
1.06500 989494.0
1.07500 961500.0
1.08500 927042.0
1.09500 903760.0
1.10500 875310.0
1.11500 852980.0
1.12500 831039.0
1.13500 808036.0
1.14500 790819.0
1.15500 776652.0
1.16500 764107.0
1.17500 756205.0
1.18500 751051.0
1.19500 740773.0
1.20500 733893.0
1.21500 728665.0
1.22500 724680.0
1.23500 727145.0
1.24500 729657.0
1.25500 733507.0
1.26500 745208.0
1.27500 743836.0
1.28500 757299.0
1.29500 772224.0
1.30500 791371.0
1.31500 821518.0
1.32500 853780.0
1.33500 897649.0
1.34500 956358.0
1.35500 1019107.0
1.36500 1095297.0
1.37500 1196438.0
1.38500 1319980.0
1.39500 1496468.0
1.40500 1725972.0
1.41500 2065763.0
1.42500 2524186.0
1.43500 3205076.0
1.44500 4235301.0
1.45500 5538723.0
1.46500 6888752.0
1.47500 7909947.0
1.48500 8041136.0
1.49500 7364394.0
1.50500 6103898.0
1.51500 4671005.0
1.52500 3396372.0
1.53500 2432480.0
1.54500 1715545.0
1.55500 1230013.0
1.56500 902483.0
1.57500 683645.0
1.58500 530397.0
1.59500 415293.0
1.60500 330727.0
1.61500 265301.0
1.62500 216434.0
1.63500 181132.0
1.64500 152386.0
1.65500 130083.0
1.66500 112416.0
1.67500 97818.0
1.68500 84355.0
1.69500 74372.0
1.70500 65586.0
1.71500 57939.0
1.72500 51337.0
1.73500 45522.0
1.74500 40240.0
1.75500 36150.0
1.76500 32975.0
1.77500 29722.0
1.78500 27577.0
1.79500 25160.0
1.80500 22986.0
1.81500 21292.0
1.82500 20015.0
1.83500 18564.0
1.84500 17528.0
1.85500 16051.0
1.86500 14700.0
1.87500 13871.0
1.88500 12585.0
1.89500 11472.0
1.90500 10682.0
1.91500 9890.0
1.92500 9277.0
1.93500 8607.0
1.94500 7776.0
1.95500 7323.0
1.96500 6802.0
1.97500 6410.0
1.98500 5892.0
1.99500 5402.0
2.00500 5168.0
2.01500 4894.0
2.02500 4592.0
2.03500 4420.0
2.04500 4208.0
2.05500 3911.0
2.06500 3800.0
2.07500 3606.0
2.08500 3492.0
2.09500 3484.0
2.10500 3276.0
2.11500 3247.0
2.12500 3118.0
2.13500 2954.0
2.14500 2842.0
2.15500 2822.0
2.16500 2684.0
2.17500 2764.0
2.18500 2670.0
2.19500 2582.0
2.20500 2477.0
2.21500 2408.0
2.22500 2325.0
2.23500 2223.0
2.24500 2295.0
2.25500 2105.0
2.26500 2142.0
2.27500 2055.0
2.28500 1968.0
2.29500 1940.0
2.30500 1800.0
2.31500 1720.0
2.32500 1636.0
2.33500 1597.0
2.34500 1486.0
2.35500 1578.0
2.36500 1478.0
2.37500 1433.0
2.38500 1409.0
2.39500 1473.0
2.40500 1414.0
2.41500 1373.0
2.42500 1415.0
2.43500 1375.0
2.44500 1370.0
2.45500 1314.0
2.46500 1363.0
2.47500 1369.0
2.48500 1318.0
2.49500 1345.0
2.50500 1364.0
2.51500 1413.0
2.52500 1478.0
2.53500 1494.0
2.54500 1717.0
2.55500 1952.0
2.56500 2074.0
2.57500 2427.0
2.58500 2630.0
2.59500 3120.0
2.60500 4282.0
2.61500 5504.0
2.62500 7706.0
2.63500 10018.0
2.64500 14130.0
2.65500 22522.0
2.66500 43293.0
2.67500 95162.0
2.68500 168780.0
2.69500 232977.0
2.70500 252067.0
2.71500 214104.0
2.72500 156420.0
2.73500 109622.0
2.74500 76967.0
2.75500 55469.0
2.76500 41127.0
2.77500 32188.0
2.78500 26008.0
2.79500 21772.0
2.80500 18868.0
2.81500 16963.0
2.82500 14528.0
2.83500 13042.0
2.84500 11320.0
2.85500 10479.0
2.86500 9555.0
2.87500 8853.0
2.88500 8404.0
2.89500 7675.0
2.90500 7373.0
2.91500 6901.0
2.92500 6414.0
2.93500 5984.0
2.94500 5801.0
2.95500 5634.0
2.96500 5333.0
2.97500 4877.0
2.98500 4705.0
2.99500 4498.0
3.00500 4374.0
3.01500 4092.0
3.02500 4033.0
3.03500 3889.0
3.04500 3741.0
3.05500 3718.0
3.06500 3614.0
3.07500 3377.0
3.08500 3556.0
3.09500 3416.0
3.10500 3218.0
3.11500 3284.0
3.12500 3154.0
3.13500 3189.0
3.14500 2983.0
3.15500 2794.0
3.16500 2767.0
3.17500 2687.0
3.18500 2699.0
3.19500 2570.0
3.20500 2514.0
3.21500 2532.0
3.22500 2427.0
3.23500 2380.0
3.24500 2424.0
3.25500 2355.0
3.26500 2446.0
3.27500 2408.0
3.28500 2405.0
3.29500 2361.0
3.30500 2210.0
3.31500 2172.0
3.32500 2023.0
3.33500 2014.0
3.34500 1945.0
3.35500 2011.0
3.36500 1939.0
3.37500 1806.0
3.38500 1754.0
3.39500 1725.0
3.40500 1737.0
3.41500 1727.0
3.42500 1683.0
3.43500 1681.0
3.44500 1776.0
3.45500 1775.0
3.46500 1768.0
3.47500 1661.0
3.48500 1649.0
3.49500 1688.0
3.50500 1642.0
3.51500 1617.0
3.52500 1643.0
3.53500 1582.0
3.54500 1553.0
3.55500 1521.0
3.56500 1529.0
3.57500 1523.0
3.58500 1480.0
3.59500 1448.0
3.60500 1473.0
3.61500 1407.0
3.62500 1502.0
3.63500 1501.0
3.64500 1557.0
3.65500 1525.0
3.66500 1461.0
3.67500 1419.0
3.68500 1417.0
3.69500 1399.0
3.70500 1465.0
3.71500 1407.0
3.72500 1459.0
3.73500 1380.0
3.74500 1445.0
3.75500 1577.0
3.76500 1495.0
3.77500 1557.0
3.78500 1652.0
3.79500 1685.0
3.80500 1865.0
3.81500 1977.0
3.82500 2071.0
3.83500 2083.0
3.84500 2207.0
3.85500 2311.0
3.86500 2558.0
3.87500 2746.0
3.88500 3412.0
3.89500 3956.0
3.90500 4870.0
3.91500 5977.0
3.92500 8003.0
3.93500 14757.0
3.94500 30321.0
3.95500 49930.0
3.96500 65831.0
3.97500 65806.0
3.98500 53898.0
3.99500 37919.0
4.00500 25357.0
4.01500 16954.0
4.02500 11251.0
4.03500 7636.0
4.04500 5630.0
4.05500 4190.0
4.06500 3154.0
4.07500 2690.0
4.08500 2176.0
4.09500 1920.0
4.10500 1599.0
4.11500 1332.0
4.12500 1195.0
4.13500 1182.0
4.14500 916.0
4.15500 854.0
4.16500 810.0
4.17500 734.0
4.18500 703.0
4.19500 686.0
4.20500 648.0
4.21500 588.0
4.22500 608.0
4.23500 504.0
4.24500 503.0
4.25500 481.0
4.26500 461.0
4.27500 450.0
4.28500 482.0
4.29500 484.0
4.30500 429.0
4.31500 460.0
4.32500 449.0
4.33500 315.0
4.34500 353.0
4.35500 349.0
4.36500 322.0
4.37500 311.0
4.38500 322.0
4.39500 309.0
4.40500 305.0
4.41500 331.0
4.42500 335.0
4.43500 366.0
4.44500 349.0
4.45500 335.0
4.46500 337.0
4.47500 325.0
4.48500 312.0
4.49500 318.0
4.50500 359.0
4.51500 326.0
4.52500 366.0
4.53500 349.0
4.54500 302.0
4.55500 381.0
4.56500 333.0
4.57500 434.0
4.58500 475.0
4.59500 337.0
4.60500 371.0
4.61500 415.0
4.62500 404.0
4.63500 375.0
4.64500 320.0
4.65500 302.0
4.66500 299.0
4.67500 232.0
4.68500 277.0
4.69500 373.0
4.70500 389.0
4.71500 361.0
4.72500 371.0
4.73500 333.0
4.74500 354.0
4.75500 330.0
4.76500 263.0
4.77500 325.0
4.78500 335.0
4.79500 277.0
4.80500 290.0
4.81500 202.0
4.82500 241.0
4.83500 272.0
4.84500 274.0
4.85500 221.0
4.86500 225.0
4.87500 240.0
4.88500 243.0
4.89500 280.0
4.90500 253.0
4.91500 328.0
4.92500 404.0
4.93500 424.0
4.94500 408.0
4.95500 439.0
4.96500 312.0
4.97500 315.0
4.98500 274.0
4.99500 385.0
5.00500 272.0
5.01500 334.0
5.02500 364.0
5.03500 326.0
5.04500 338.0
5.05500 267.0
5.06500 274.0
5.07500 269.0
5.08500 231.0
5.09500 224.0
5.10500 244.0
5.11500 285.0
5.12500 315.0
5.13500 392.0
5.14500 394.0
5.15500 506.0
5.16500 581.0
5.17500 634.0
5.18500 865.0
5.19500 1108.0
5.20500 1557.0
5.21500 2421.0
5.22500 4905.0
5.23500 8253.0
5.24500 11678.0
5.25500 13672.0
5.26500 13144.0
5.27500 10772.0
5.28500 8087.0
5.29500 6041.0
5.30500 4314.0
5.31500 3137.0
5.32500 2413.0
5.33500 1922.0
5.34500 1455.0
5.35500 1320.0
5.36500 1081.0
5.37500 1010.0
5.38500 883.0
5.39500 761.0
5.40500 722.0
5.41500 674.0
5.42500 615.0
5.43500 606.0
5.44500 608.0
5.45500 547.0
5.46500 606.0
5.47500 451.0
5.48500 357.0
5.49500 380.0
5.50500 314.0
5.51500 355.0
5.52500 367.0
5.53500 327.0
5.54500 318.0
5.55500 315.0
5.56500 308.0
5.57500 328.0
5.58500 294.0
5.59500 268.0
5.60500 320.0
5.61500 279.0
5.62500 307.0
5.63500 294.0
5.64500 313.0
5.65500 269.0
5.66500 312.0
5.67500 316.0
5.68500 273.0
5.69500 309.0
5.70500 300.0
5.71500 348.0
5.72500 306.0
5.73500 371.0
5.74500 325.0
5.75500 247.0
5.76500 285.0
5.77500 293.0
5.78500 271.0
5.79500 312.0
5.80500 284.0
5.81500 275.0
5.82500 271.0
5.83500 261.0
5.84500 288.0
5.85500 236.0
5.86500 224.0
5.87500 243.0
5.88500 240.0
5.89500 238.0
5.90500 277.0
5.91500 246.0
5.92500 199.0
5.93500 260.0
5.94500 274.0
5.95500 239.0
5.96500 208.0
5.97500 233.0
5.98500 220.0
5.99500 213.0
6.00500 249.0
6.01500 242.0
6.02500 215.0
6.03500 243.0
6.04500 234.0
6.05500 245.0
6.06500 223.0
6.07500 198.0
6.08500 230.0
6.09500 227.0
6.10500 219.0
6.11500 215.0
6.12500 203.0
6.13500 210.0
6.14500 225.0
6.15500 214.0
6.16500 202.0
6.17500 213.0
6.18500 202.0
6.19500 221.0
6.20500 221.0
6.21500 223.0
6.22500 248.0
6.23500 214.0
6.24500 240.0
6.25500 307.0
6.26500 245.0
6.27500 234.0
6.28500 266.0
6.29500 294.0
6.30500 302.0
6.31500 266.0
6.32500 244.0
6.33500 261.0
6.34500 262.0
6.35500 243.0
6.36500 281.0
6.37500 302.0
6.38500 305.0
6.39500 328.0
6.40500 257.0
6.41500 263.0
6.42500 301.0
6.43500 318.0
6.44500 298.0
6.45500 334.0
6.46500 370.0
6.47500 346.0
6.48500 366.0
6.49500 435.0
6.50500 439.0
6.51500 534.0
6.52500 630.0
6.53500 805.0
6.54500 952.0
6.55500 1013.0
6.56500 927.0
6.57500 818.0
6.58500 627.0
6.59500 528.0
6.60500 437.0
6.61500 380.0
6.62500 334.0
6.63500 308.0
6.64500 333.0
6.65500 288.0
6.66500 326.0
6.67500 291.0
6.68500 296.0
6.69500 343.0
6.70500 358.0
6.71500 330.0
6.72500 295.0
6.73500 276.0
6.74500 290.0
6.75500 253.0
6.76500 251.0
6.77500 330.0
6.78500 307.0
6.79500 325.0
6.80500 304.0
6.81500 288.0
6.82500 251.0
6.83500 308.0
6.84500 258.0
6.85500 326.0
6.86500 337.0
6.87500 297.0
6.88500 319.0
6.89500 247.0
6.90500 246.0
6.91500 257.0
6.92500 287.0
6.93500 226.0
6.94500 238.0
6.95500 235.0
6.96500 206.0
6.97500 245.0
6.98500 259.0
6.99500 209.0
7.00500 238.0
7.01500 241.0
7.02500 274.0
7.03500 268.0
7.04500 206.0
7.05500 168.0
7.06500 196.0
7.07500 214.0
7.08500 219.0
7.09500 222.0
7.10500 255.0
7.11500 280.0
7.12500 261.0
7.13500 284.0
7.14500 266.0
7.15500 200.0
7.16500 189.0
7.17500 191.0
7.18500 200.0
7.19500 220.0
7.20500 241.0
7.21500 166.0
7.22500 155.0
7.23500 170.0
7.24500 183.0
7.25500 188.0
7.26500 205.0
7.27500 147.0
7.28500 140.0
7.29500 157.0
7.30500 220.0
7.31500 184.0
7.32500 188.0
7.33500 197.0
7.34500 207.0
7.35500 177.0
7.36500 137.0
7.37500 159.0
7.38500 173.0
7.39500 196.0
7.40500 198.0
7.41500 168.0
7.42500 196.0
7.43500 208.0
7.44500 223.0
7.45500 242.0
7.46500 189.0
7.47500 178.0
7.48500 146.0
7.49500 219.0
7.50500 182.0
7.51500 181.0
7.52500 200.0
7.53500 174.0
7.54500 207.0
7.55500 218.0
7.56500 195.0
7.57500 190.0
7.58500 203.0
7.59500 192.0
7.60500 215.0
7.61500 169.0
7.62500 175.0
7.63500 236.0
7.64500 264.0
7.65500 252.0
7.66500 231.0
7.67500 277.0
7.68500 256.0
7.69500 280.0
7.70500 258.0
7.71500 213.0
7.72500 273.0
7.73500 230.0
7.74500 238.0
7.75500 262.0
7.76500 279.0
7.77500 287.0
7.78500 295.0
7.79500 364.0
7.80500 412.0
7.81500 570.0
7.82500 759.0
7.83500 939.0
7.84500 1044.0
7.85500 1085.0
7.86500 1002.0
7.87500 955.0
7.88500 727.0
7.89500 599.0
7.90500 450.0
7.91500 491.0
7.92500 406.0
7.93500 360.0
7.94500 317.0
7.95500 343.0
7.96500 335.0
7.97500 315.0
7.98500 326.0
7.99500 349.0
