0.00500 71581632.0
0.01500 81903360.0
0.02500 71144224.0
0.03500 50072060.0
0.04500 29911252.0
0.05500 16196649.0
0.06500 10143838.0
0.07500 9739464.0
0.08500 10803576.0
0.09500 11961296.0
0.10500 13356609.0
0.11500 14434896.0
0.12500 15796567.0
0.13500 17234608.0
0.14500 18164608.0
0.15500 19427524.0
0.16500 20343574.0
0.17500 21562166.0
0.18500 22953160.0
0.19500 23724376.0
0.20500 24920616.0
0.21500 25861252.0
0.22500 26629924.0
0.23500 28240676.0
0.24500 28721404.0
0.25500 29778228.0
0.26500 30691244.0
0.27500 31389996.0
0.28500 33010740.0
0.29500 33238932.0
0.30500 34073464.0
0.31500 35025484.0
0.32500 35571516.0
0.33500 37084412.0
0.34500 37252440.0
0.35500 38027380.0
0.36500 39197788.0
0.37500 39451036.0
0.38500 40915548.0
0.39500 41333612.0
0.40500 41511608.0
0.41500 42684560.0
0.42500 43034572.0
0.43500 44235760.0
0.44500 44763576.0
0.45500 44733916.0
0.46500 45726080.0
0.47500 45953464.0
0.48500 46644240.0
0.49500 47046692.0
0.50500 46883152.0
0.51500 47700376.0
0.52500 47431264.0
0.53500 47950852.0
0.54500 48353972.0
0.55500 48155648.0
0.56500 48930944.0
0.57500 48855560.0
0.58500 48573228.0
0.59500 48840088.0
0.60500 47751228.0
0.61500 47674016.0
0.62500 47264432.0
0.63500 46190844.0
0.64500 45832404.0
0.65500 44410272.0
0.66500 43416080.0
0.67500 41553544.0
0.68500 39321024.0
0.69500 37337812.0
0.70500 34348304.0
0.71500 31424394.0
0.72500 28710552.0
0.73500 25721364.0
0.74500 23388804.0
0.75500 20928236.0
0.76500 18837518.0
0.77500 17175040.0
0.78500 15383360.0
0.79500 14143452.0
0.80500 12954465.0
0.81500 11888909.0
0.82500 11019170.0
0.83500 10107966.0
0.84500 9448461.0
0.85500 8810453.0
0.86500 8175566.0
0.87500 7620102.0
0.88500 7080455.0
0.89500 6595528.0
0.90500 6262062.0
0.91500 5843516.0
0.92500 5548498.0
0.93500 5154447.0
0.94500 4865208.0
0.95500 4657688.0
0.96500 4361934.0
0.97500 4154684.0
0.98500 3911423.0
0.99500 3698815.0
1.00500 3566156.0
1.01500 3342514.0
1.02500 3195816.0
1.03500 3050104.0
1.04500 2876096.0
1.05500 2764413.0
1.06500 2630170.0
1.07500 2511651.0
1.08500 2405725.0
1.09500 2305046.0
1.10500 2210404.0
1.11500 2125719.0
1.12500 2044597.0
1.13500 1948469.0
1.14500 1863750.0
1.15500 1805729.0
1.16500 1734164.0
1.17500 1658899.0
1.18500 1583170.0
1.19500 1515235.0
1.20500 1449816.0
1.21500 1394093.0
1.22500 1338287.0
1.23500 1297162.0
1.24500 1243096.0
1.25500 1206789.0
1.26500 1157888.0
1.27500 1115630.0
1.28500 1078264.0
1.29500 1038974.0
1.30500 1005802.0
1.31500 972259.0
1.32500 934339.0
1.33500 906467.0
1.34500 871815.0
1.35500 842778.0
1.36500 816896.0
1.37500 786201.0
1.38500 761643.0
1.39500 736234.0
1.40500 714980.0
1.41500 696951.0
1.42500 677140.0
1.43500 654519.0
1.44500 635272.0
1.45500 619253.0
1.46500 602093.0
1.47500 584065.0
1.48500 568966.0
1.49500 549907.0
1.50500 531897.0
1.51500 518029.0
1.52500 507429.0
1.53500 489177.0
1.54500 478352.0
1.55500 467112.0
1.56500 455397.0
1.57500 444987.0
1.58500 436027.0
1.59500 428126.0
1.60500 418168.0
1.61500 409012.0
1.62500 401834.0
1.63500 397266.0
1.64500 386313.0
1.65500 378241.0
1.66500 371131.0
1.67500 364947.0
1.68500 353942.0
1.69500 345918.0
1.70500 344085.0
1.71500 337948.0
1.72500 328494.0
1.73500 327276.0
1.74500 328016.0
1.75500 325266.0
1.76500 316834.0
1.77500 317619.0
1.78500 319873.0
1.79500 314550.0
1.80500 312429.0
1.81500 314205.0
1.82500 316029.0
1.83500 311282.0
1.84500 307688.0
1.85500 315530.0
1.86500 315421.0
1.87500 311643.0
1.88500 317128.0
1.89500 327213.0
1.90500 326816.0
1.91500 326759.0
1.92500 335089.0
1.93500 350600.0
1.94500 357696.0
1.95500 361700.0
1.96500 375848.0
1.97500 400804.0
1.98500 410292.0
1.99500 423101.0
2.00500 447679.0
2.01500 472499.0
2.02500 494597.0
2.03500 538808.0
2.04500 615757.0
2.05500 701821.0
2.06500 779191.0
2.07500 897421.0
2.08500 1077875.0
2.09500 1287069.0
2.10500 1563341.0
2.11500 1997314.0
2.12500 2581389.0
2.13500 3208600.0
2.14500 4156022.0
2.15500 5897278.0
2.16500 8958389.0
2.17500 12439137.0
2.18500 14431175.0
2.19500 14076372.0
2.20500 11573058.0
2.21500 8075878.0
2.22500 4837134.0
2.23500 2840315.0
2.24500 1764079.0
2.25500 1197445.0
2.26500 858664.0
2.27500 670280.0
2.28500 583042.0
2.29500 503452.0
2.30500 416601.0
2.31500 352645.0
2.32500 313143.0
2.33500 277406.0
2.34500 241401.0
2.35500 210746.0
2.36500 193554.0
2.37500 169172.0
2.38500 145558.0
2.39500 129115.0
2.40500 121037.0
2.41500 111799.0
2.42500 97630.0
2.43500 85684.0
2.44500 79935.0
2.45500 74645.0
2.46500 67143.0
2.47500 62160.0
2.48500 59002.0
2.49500 56470.0
2.50500 50132.0
2.51500 46555.0
2.52500 44535.0
2.53500 42210.0
2.54500 39298.0
2.55500 36208.0
2.56500 35572.0
2.57500 34432.0
2.58500 31577.0
2.59500 29603.0
2.60500 29045.0
2.61500 28805.0
2.62500 27407.0
2.63500 25796.0
2.64500 25326.0
2.65500 25012.0
2.66500 23516.0
2.67500 22400.0
2.68500 22020.0
2.69500 21698.0
2.70500 20316.0
2.71500 19291.0
2.72500 19058.0
2.73500 18561.0
2.74500 17951.0
2.75500 16661.0
2.76500 16780.0
2.77500 17130.0
2.78500 16002.0
2.79500 15490.0
2.80500 15540.0
2.81500 15615.0
2.82500 15092.0
2.83500 14143.0
2.84500 13974.0
2.85500 13960.0
2.86500 13562.0
2.87500 13116.0
2.88500 12698.0
2.89500 12905.0
2.90500 12854.0
2.91500 11880.0
2.92500 11972.0
2.93500 12228.0
2.94500 11867.0
2.95500 11627.0
2.96500 11312.0
2.97500 11381.0
2.98500 11117.0
2.99500 10848.0
3.00500 10567.0
3.01500 10756.0
3.02500 10456.0
3.03500 9988.0
3.04500 10077.0
3.05500 10141.0
3.06500 10189.0
3.07500 9730.0
3.08500 9256.0
3.09500 9692.0
3.10500 9599.0
3.11500 9058.0
3.12500 8959.0
3.13500 9382.0
3.14500 9047.0
3.15500 8823.0
3.16500 8739.0
3.17500 8680.0
3.18500 8933.0
3.19500 8637.0
3.20500 8246.0
3.21500 8404.0
3.22500 8342.0
3.23500 7847.0
3.24500 7708.0
3.25500 7570.0
3.26500 7509.0
3.27500 7305.0
3.28500 7122.0
3.29500 7050.0
3.30500 7080.0
3.31500 6658.0
3.32500 6487.0
3.33500 6704.0
3.34500 6632.0
3.35500 6374.0
3.36500 6296.0
3.37500 6207.0
3.38500 6289.0
3.39500 6004.0
3.40500 5801.0
3.41500 5888.0
3.42500 6094.0
3.43500 5810.0
3.44500 5645.0
3.45500 5710.0
3.46500 5815.0
3.47500 5457.0
3.48500 5442.0
3.49500 5691.0
3.50500 5658.0
3.51500 5468.0
3.52500 5430.0
3.53500 5595.0
3.54500 5452.0
3.55500 5559.0
3.56500 5220.0
3.57500 5323.0
3.58500 5407.0
3.59500 5210.0
3.60500 5135.0
3.61500 5147.0
3.62500 5317.0
3.63500 5092.0
3.64500 4708.0
3.65500 4899.0
3.66500 4921.0
3.67500 5050.0
3.68500 4935.0
3.69500 4967.0
3.70500 5111.0
3.71500 5246.0
3.72500 4890.0
3.73500 4710.0
3.74500 4965.0
3.75500 4880.0
3.76500 4706.0
3.77500 4664.0
3.78500 4802.0
3.79500 4920.0
3.80500 4637.0
3.81500 4655.0
3.82500 4570.0
3.83500 4513.0
3.84500 4292.0
3.85500 4317.0
3.86500 4376.0
3.87500 4543.0
3.88500 4352.0
3.89500 4107.0
3.90500 4296.0
3.91500 4314.0
3.92500 4353.0
3.93500 4083.0
3.94500 4026.0
3.95500 4000.0
3.96500 4063.0
3.97500 4087.0
3.98500 4244.0
3.99500 4381.0
4.00500 4346.0
4.01500 4459.0
4.02500 4636.0
4.03500 5166.0
4.04500 5977.0
4.05500 6097.0
4.06500 6163.0
4.07500 6746.0
4.08500 7732.0
4.09500 8626.0
4.10500 9349.0
4.11500 11506.0
4.12500 15545.0
4.13500 19640.0
4.14500 21907.0
4.15500 23645.0
4.16500 33004.0
4.17500 63650.0
4.18500 118745.0
4.19500 185195.0
4.20500 232346.0
4.21500 239097.0
4.22500 199219.0
4.23500 136393.0
4.24500 84014.0
4.25500 48446.0
4.26500 31103.0
4.27500 22082.0
4.28500 16637.0
4.29500 14258.0
4.30500 13730.0
4.31500 12966.0
4.32500 11220.0
4.33500 9922.0
4.34500 10106.0
4.35500 9796.0
4.36500 8681.0
4.37500 8054.0
4.38500 8536.0
4.39500 8513.0
4.40500 7879.0
4.41500 7076.0
4.42500 6811.0
4.43500 7217.0
4.44500 6966.0
4.45500 6346.0
4.46500 5892.0
4.47500 6020.0
4.48500 5954.0
4.49500 5384.0
4.50500 5340.0
4.51500 5561.0
4.52500 5333.0
4.53500 4898.0
4.54500 4793.0
4.55500 5020.0
4.56500 5023.0
4.57500 4580.0
4.58500 4476.0
4.59500 4554.0
4.60500 4590.0
4.61500 4328.0
4.62500 4045.0
4.63500 4023.0
4.64500 4097.0
4.65500 3891.0
4.66500 3717.0
4.67500 3695.0
4.68500 3757.0
4.69500 3583.0
4.70500 3528.0
4.71500 3617.0
4.72500 3666.0
4.73500 3490.0
4.74500 3191.0
4.75500 3469.0
4.76500 3437.0
4.77500 3308.0
4.78500 3090.0
4.79500 3136.0
4.80500 3158.0
4.81500 3136.0
4.82500 3029.0
4.83500 2986.0
4.84500 3096.0
4.85500 2816.0
4.86500 2849.0
4.87500 2585.0
4.88500 2810.0
4.89500 2817.0
4.90500 2587.0
4.91500 2540.0
4.92500 2607.0
4.93500 2557.0
4.94500 2441.0
4.95500 2404.0
4.96500 2553.0
4.97500 2535.0
4.98500 2465.0
4.99500 2352.0
5.00500 2339.0
5.01500 2562.0
5.02500 2290.0
5.03500 2188.0
5.04500 2298.0
5.05500 2246.0
5.06500 2169.0
5.07500 2294.0
5.08500 2320.0
5.09500 2193.0
5.10500 2076.0
5.11500 1953.0
5.12500 2077.0
5.13500 2125.0
5.14500 2013.0
5.15500 1875.0
5.16500 1973.0
5.17500 1991.0
5.18500 2027.0
5.19500 1885.0
5.20500 1939.0
5.21500 2023.0
5.22500 1906.0
5.23500 1833.0
5.24500 1816.0
5.25500 1885.0
5.26500 1840.0
5.27500 1727.0
5.28500 1678.0
5.29500 1737.0
5.30500 1788.0
5.31500 1665.0
5.32500 1686.0
5.33500 1704.0
5.34500 1640.0
5.35500 1543.0
5.36500 1643.0
5.37500 1666.0
5.38500 1516.0
5.39500 1474.0
5.40500 1413.0
5.41500 1496.0
5.42500 1495.0
5.43500 1371.0
5.44500 1278.0
5.45500 1338.0
5.46500 1435.0
5.47500 1296.0
5.48500 1252.0
5.49500 1243.0
5.50500 1251.0
5.51500 1233.0
5.52500 1237.0
5.53500 1241.0
5.54500 1259.0
5.55500 1201.0
5.56500 1226.0
5.57500 1129.0
5.58500 1248.0
5.59500 1246.0
5.60500 1195.0
5.61500 1219.0
5.62500 1245.0
5.63500 1310.0
5.64500 1218.0
5.65500 1212.0
5.66500 1212.0
5.67500 1255.0
5.68500 1139.0
5.69500 1190.0
5.70500 1217.0
5.71500 1102.0
5.72500 1140.0
5.73500 997.0
5.74500 1105.0
5.75500 951.0
5.76500 907.0
5.77500 915.0
5.78500 960.0
5.79500 1064.0
5.80500 964.0
5.81500 1013.0
5.82500 1014.0
5.83500 1095.0
5.84500 1064.0
5.85500 1042.0
5.86500 1088.0
5.87500 1117.0
5.88500 1108.0
5.89500 1091.0
5.90500 1013.0
5.91500 967.0
5.92500 1076.0
5.93500 1145.0
5.94500 1111.0
5.95500 1049.0
5.96500 934.0
5.97500 963.0
5.98500 1007.0
5.99500 1041.0
6.00500 1024.0
6.01500 991.0
6.02500 994.0
6.03500 1104.0
6.04500 1085.0
6.05500 1088.0
6.06500 1155.0
6.07500 1187.0
6.08500 1220.0
6.09500 1393.0
6.10500 1573.0
6.11500 1749.0
6.12500 2046.0
6.13500 2194.0
6.14500 2667.0
6.15500 3049.0
6.16500 3536.0
6.17500 4536.0
6.18500 6019.0
6.19500 7202.0
6.20500 7636.0
6.21500 8872.0
6.22500 13071.0
6.23500 21844.0
6.24500 32256.0
6.25500 39238.0
6.26500 39516.0
6.27500 33790.0
6.28500 23915.0
6.29500 15090.0
6.30500 8718.0
6.31500 5204.0
6.32500 3457.0
6.33500 2632.0
6.34500 2340.0
6.35500 1931.0
6.36500 1566.0
6.37500 1318.0
6.38500 1092.0
6.39500 1058.0
6.40500 923.0
6.41500 844.0
6.42500 794.0
6.43500 718.0
6.44500 721.0
6.45500 687.0
6.46500 514.0
6.47500 582.0
6.48500 532.0
6.49500 490.0
6.50500 469.0
6.51500 426.0
6.52500 452.0
6.53500 377.0
6.54500 441.0
6.55500 401.0
6.56500 364.0
6.57500 335.0
6.58500 400.0
6.59500 395.0
6.60500 379.0
6.61500 351.0
6.62500 439.0
6.63500 313.0
6.64500 343.0
6.65500 339.0
6.66500 373.0
6.67500 293.0
6.68500 293.0
6.69500 297.0
6.70500 293.0
6.71500 342.0
6.72500 345.0
6.73500 333.0
6.74500 342.0
6.75500 309.0
6.76500 273.0
6.77500 262.0
6.78500 247.0
6.79500 233.0
6.80500 220.0
6.81500 248.0
6.82500 286.0
6.83500 270.0
6.84500 255.0
6.85500 280.0
6.86500 300.0
6.87500 276.0
6.88500 242.0
6.89500 206.0
6.90500 226.0
6.91500 222.0
6.92500 171.0
6.93500 210.0
6.94500 187.0
6.95500 211.0
6.96500 215.0
6.97500 227.0
6.98500 216.0
6.99500 179.0
7.00500 199.0
7.01500 241.0
7.02500 191.0
7.03500 274.0
7.04500 229.0
7.05500 235.0
7.06500 224.0
7.07500 285.0
7.08500 224.0
7.09500 262.0
7.10500 259.0
7.11500 244.0
7.12500 258.0
7.13500 256.0
7.14500 256.0
7.15500 307.0
7.16500 354.0
7.17500 397.0
7.18500 364.0
7.19500 449.0
7.20500 361.0
7.21500 307.0
7.22500 282.0
7.23500 230.0
7.24500 242.0
7.25500 243.0
7.26500 190.0
7.27500 212.0
7.28500 265.0
7.29500 226.0
7.30500 255.0
7.31500 207.0
7.32500 250.0
7.33500 232.0
7.34500 234.0
7.35500 230.0
7.36500 238.0
7.37500 216.0
7.38500 236.0
7.39500 231.0
7.40500 230.0
7.41500 244.0
7.42500 238.0
7.43500 250.0
7.44500 219.0
7.45500 241.0
7.46500 238.0
7.47500 264.0
7.48500 287.0
7.49500 265.0
7.50500 320.0
7.51500 242.0
7.52500 245.0
7.53500 241.0
7.54500 227.0
7.55500 269.0
7.56500 222.0
7.57500 240.0
7.58500 229.0
7.59500 225.0
7.60500 211.0
7.61500 243.0
7.62500 236.0
7.63500 212.0
7.64500 220.0
7.65500 244.0
7.66500 245.0
7.67500 239.0
7.68500 216.0
7.69500 220.0
7.70500 239.0
7.71500 235.0
7.72500 273.0
7.73500 228.0
7.74500 253.0
7.75500 224.0
7.76500 235.0
7.77500 284.0
7.78500 256.0
7.79500 293.0
7.80500 228.0
7.81500 272.0
7.82500 301.0
7.83500 285.0
7.84500 261.0
7.85500 268.0
7.86500 240.0
7.87500 248.0
7.88500 285.0
7.89500 254.0
7.90500 277.0
7.91500 300.0
7.92500 315.0
7.93500 299.0
7.94500 278.0
7.95500 292.0
7.96500 295.0
7.97500 243.0
7.98500 229.0
7.99500 285.0
8.00500 220.0
8.01500 240.0
8.02500 247.0
8.03500 285.0
8.04500 295.0
8.05500 227.0
8.06500 273.0
8.07500 279.0
8.08500 253.0
8.09500 248.0
8.10500 236.0
8.11500 268.0
8.12500 244.0
8.13500 293.0
8.14500 282.0
8.15500 252.0
8.16500 271.0
8.17500 345.0
8.18500 304.0
8.19500 262.0
8.20500 316.0
8.21500 274.0
8.22500 316.0
8.23500 318.0
8.24500 370.0
8.25500 450.0
8.26500 474.0
8.27500 406.0
8.28500 558.0
8.29500 739.0
8.30500 1112.0
8.31500 1651.0
8.32500 2024.0
8.33500 2052.0
8.34500 1888.0
8.35500 1489.0
8.36500 1208.0
8.37500 925.0
8.38500 744.0
8.39500 529.0
8.40500 384.0
8.41500 356.0
8.42500 318.0
8.43500 327.0
8.44500 278.0
8.45500 286.0
8.46500 271.0
8.47500 290.0
8.48500 305.0
8.49500 298.0
8.50500 323.0
8.51500 294.0
8.52500 338.0
8.53500 363.0
8.54500 374.0
8.55500 351.0
8.56500 310.0
8.57500 339.0
8.58500 282.0
8.59500 271.0
8.60500 313.0
8.61500 238.0
8.62500 269.0
8.63500 282.0
8.64500 275.0
8.65500 299.0
8.66500 307.0
8.67500 293.0
8.68500 249.0
8.69500 281.0
8.70500 296.0
8.71500 326.0
8.72500 262.0
8.73500 291.0
8.74500 242.0
8.75500 213.0
8.76500 230.0
8.77500 270.0
8.78500 297.0
8.79500 327.0
8.80500 334.0
8.81500 317.0
8.82500 305.0
8.83500 328.0
8.84500 301.0
8.85500 356.0
8.86500 307.0
8.87500 297.0
8.88500 360.0
8.89500 364.0
8.90500 322.0
8.91500 310.0
8.92500 311.0
8.93500 296.0
8.94500 282.0
8.95500 297.0
8.96500 279.0
8.97500 230.0
8.98500 243.0
8.99500 291.0
9.00500 293.0
9.01500 247.0
9.02500 280.0
9.03500 295.0
9.04500 303.0
9.05500 284.0
9.06500 300.0
9.07500 271.0
9.08500 273.0
9.09500 246.0
9.10500 268.0
9.11500 269.0
9.12500 255.0
9.13500 260.0
9.14500 252.0
9.15500 258.0
9.16500 270.0
9.17500 224.0
9.18500 197.0
9.19500 243.0
9.20500 219.0
9.21500 235.0
9.22500 244.0
9.23500 240.0
9.24500 205.0
9.25500 210.0
9.26500 176.0
9.27500 195.0
9.28500 188.0
9.29500 215.0
9.30500 262.0
9.31500 267.0
9.32500 214.0
9.33500 220.0
9.34500 232.0
9.35500 246.0
9.36500 205.0
9.37500 238.0
9.38500 246.0
9.39500 266.0
9.40500 285.0
9.41500 250.0
9.42500 239.0
9.43500 246.0
9.44500 326.0
9.45500 256.0
9.46500 296.0
9.47500 260.0
9.48500 264.0
9.49500 305.0
9.50500 261.0
9.51500 334.0
9.52500 332.0
9.53500 347.0
9.54500 298.0
9.55500 256.0
9.56500 230.0
9.57500 287.0
9.58500 352.0
9.59500 306.0
9.60500 279.0
9.61500 335.0
9.62500 228.0
9.63500 256.0
9.64500 221.0
9.65500 226.0
9.66500 219.0
9.67500 262.0
9.68500 246.0
9.69500 236.0
9.70500 252.0
9.71500 243.0
9.72500 258.0
9.73500 239.0
9.74500 281.0
9.75500 270.0
9.76500 257.0
9.77500 217.0
9.78500 196.0
9.79500 235.0
9.80500 289.0
9.81500 240.0
9.82500 236.0
9.83500 227.0
9.84500 233.0
9.85500 236.0
9.86500 223.0
9.87500 172.0
9.88500 184.0
9.89500 215.0
9.90500 211.0
9.91500 202.0
9.92500 239.0
9.93500 284.0
9.94500 248.0
9.95500 235.0
9.96500 228.0
9.97500 241.0
9.98500 191.0
9.99500 206.0
10.00500 172.0
10.01500 187.0
10.02500 206.0
10.03500 166.0
10.04500 207.0
10.05500 195.0
10.06500 210.0
10.07500 206.0
10.08500 189.0
10.09500 196.0
10.10500 193.0
10.11500 171.0
10.12500 173.0
10.13500 190.0
10.14500 233.0
10.15500 243.0
10.16500 253.0
10.17500 199.0
10.18500 249.0
10.19500 218.0
10.20500 203.0
10.21500 203.0
10.22500 225.0
10.23500 209.0
10.24500 252.0
10.25500 259.0
10.26500 311.0
10.27500 319.0
10.28500 319.0
10.29500 379.0
10.30500 436.0
10.31500 539.0
10.32500 511.0
10.33500 580.0
10.34500 577.0
10.35500 669.0
10.36500 847.0
10.37500 986.0
10.38500 1200.0
10.39500 1357.0
10.40500 1318.0
10.41500 1225.0
10.42500 1013.0
10.43500 774.0
10.44500 602.0
10.45500 519.0
10.46500 415.0
10.47500 413.0
10.48500 375.0
10.49500 319.0
10.50500 316.0
10.51500 249.0
10.52500 256.0
10.53500 232.0
10.54500 247.0
10.55500 184.0
10.56500 214.0
10.57500 242.0
10.58500 250.0
10.59500 243.0
10.60500 204.0
10.61500 203.0
10.62500 227.0
10.63500 210.0
10.64500 213.0
10.65500 223.0
10.66500 224.0
10.67500 180.0
10.68500 196.0
10.69500 162.0
10.70500 219.0
10.71500 207.0
10.72500 211.0
10.73500 161.0
10.74500 199.0
10.75500 187.0
10.76500 205.0
10.77500 217.0
10.78500 203.0
10.79500 162.0
10.80500 224.0
10.81500 219.0
10.82500 172.0
10.83500 173.0
10.84500 153.0
10.85500 190.0
10.86500 173.0
10.87500 180.0
10.88500 224.0
10.89500 211.0
10.90500 234.0
10.91500 209.0
10.92500 192.0
10.93500 176.0
10.94500 205.0
10.95500 209.0
10.96500 179.0
10.97500 205.0
10.98500 209.0
10.99500 284.0
11.00500 223.0
11.01500 230.0
11.02500 222.0
11.03500 202.0
11.04500 229.0
11.05500 191.0
11.06500 247.0
11.07500 210.0
11.08500 219.0
11.09500 191.0
11.10500 247.0
11.11500 203.0
11.12500 212.0
11.13500 248.0
11.14500 200.0
11.15500 175.0
11.16500 178.0
11.17500 202.0
11.18500 190.0
11.19500 186.0
11.20500 191.0
11.21500 197.0
11.22500 175.0
11.23500 180.0
11.24500 214.0
11.25500 327.0
11.26500 297.0
11.27500 268.0
11.28500 200.0
11.29500 204.0
11.30500 207.0
11.31500 263.0
11.32500 324.0
11.33500 220.0
11.34500 222.0
11.35500 222.0
11.36500 213.0
11.37500 233.0
11.38500 255.0
11.39500 274.0
11.40500 217.0
11.41500 230.0
11.42500 214.0
11.43500 202.0
11.44500 215.0
11.45500 209.0
11.46500 225.0
11.47500 165.0
11.48500 162.0
11.49500 198.0
11.50500 149.0
11.51500 196.0
11.52500 196.0
11.53500 193.0
11.54500 181.0
11.55500 196.0
11.56500 191.0
11.57500 190.0
11.58500 200.0
11.59500 166.0
11.60500 178.0
11.61500 174.0
11.62500 131.0
11.63500 159.0
11.64500 156.0
11.65500 166.0
11.66500 148.0
11.67500 153.0
11.68500 198.0
11.69500 223.0
11.70500 198.0
11.71500 243.0
11.72500 277.0
11.73500 225.0
11.74500 212.0
11.75500 259.0
11.76500 248.0
11.77500 215.0
11.78500 212.0
11.79500 193.0
11.80500 234.0
11.81500 306.0
11.82500 295.0
11.83500 268.0
11.84500 271.0
11.85500 294.0
11.86500 246.0
11.87500 248.0
11.88500 275.0
11.89500 251.0
11.90500 210.0
11.91500 173.0
11.92500 236.0
11.93500 232.0
11.94500 361.0
11.95500 266.0
11.96500 149.0
11.97500 254.0
11.98500 198.0
11.99500 175.0
