0.00500 33198728.0
0.01500 35481636.0
0.02500 26059476.0
0.03500 14394513.0
0.04500 6494764.0
0.05500 3058683.0
0.06500 2229890.0
0.07500 2373532.0
0.08500 2700738.0
0.09500 2995764.0
0.10500 3363122.0
0.11500 3735498.0
0.12500 4057793.0
0.13500 4453263.0
0.14500 4731088.0
0.15500 5125286.0
0.16500 5493248.0
0.17500 5828736.0
0.18500 6282109.0
0.19500 6566848.0
0.20500 6917181.0
0.21500 7304131.0
0.22500 7626796.0
0.23500 8123013.0
0.24500 8417408.0
0.25500 8750967.0
0.26500 9228888.0
0.27500 9530517.0
0.28500 9961112.0
0.29500 10301449.0
0.30500 10631091.0
0.31500 11115063.0
0.32500 11413586.0
0.33500 11899821.0
0.34500 12281078.0
0.35500 12520126.0
0.36500 13018394.0
0.37500 13370236.0
0.38500 13767885.0
0.39500 14181513.0
0.40500 14394257.0
0.41500 14895629.0
0.42500 15258706.0
0.43500 15684377.0
0.44500 16093873.0
0.45500 16276080.0
0.46500 16724896.0
0.47500 17123240.0
0.48500 17458052.0
0.49500 18008764.0
0.50500 18080536.0
0.51500 18378968.0
0.52500 18762092.0
0.53500 19081950.0
0.54500 19508596.0
0.55500 19526372.0
0.56500 19918992.0
0.57500 20405854.0
0.58500 20406014.0
0.59500 20687644.0
0.60500 20647468.0
0.61500 20734436.0
0.62500 21115934.0
0.63500 21015718.0
0.64500 21090864.0
0.65500 21027974.0
0.66500 20540996.0
0.67500 20033928.0
0.68500 18747510.0
0.69500 17133840.0
0.70500 14915528.0
0.71500 12618016.0
0.72500 10822905.0
0.73500 9230336.0
0.74500 8080171.0
0.75500 7123743.0
0.76500 6289574.0
0.77500 5739797.0
0.78500 5192626.0
0.79500 4727635.0
0.80500 4317095.0
0.81500 3921603.0
0.82500 3628695.0
0.83500 3389577.0
0.84500 3158970.0
0.85500 2961757.0
0.86500 2763021.0
0.87500 2608499.0
0.88500 2473388.0
0.89500 2326186.0
0.90500 2199900.0
0.91500 2070459.0
0.92500 1953729.0
0.93500 1853580.0
0.94500 1747132.0
0.95500 1655104.0
0.96500 1587195.0
0.97500 1509217.0
0.98500 1449302.0
0.99500 1394790.0
1.00500 1330376.0
1.01500 1285972.0
1.02500 1234603.0
1.03500 1182310.0
1.04500 1133539.0
1.05500 1083742.0
1.06500 1033613.0
1.07500 994519.0
1.08500 953716.0
1.09500 917139.0
1.10500 888330.0
1.11500 859610.0
1.12500 836033.0
1.13500 815978.0
1.14500 779632.0
1.15500 758144.0
1.16500 740296.0
1.17500 704203.0
1.18500 688128.0
1.19500 662919.0
1.20500 639910.0
1.21500 618360.0
1.22500 595947.0
1.23500 574921.0
1.24500 559638.0
1.25500 547663.0
1.26500 533420.0
1.27500 524570.0
1.28500 515306.0
1.29500 500355.0
1.30500 493757.0
1.31500 480541.0
1.32500 462904.0
1.33500 451395.0
1.34500 437477.0
1.35500 416252.0
1.36500 407252.0
1.37500 398164.0
1.38500 382057.0
1.39500 375650.0
1.40500 372450.0
1.41500 363803.0
1.42500 361024.0
1.43500 363034.0
1.44500 364440.0
1.45500 344549.0
1.46500 346035.0
1.47500 337467.0
1.48500 323191.0
1.49500 316874.0
1.50500 309561.0
1.51500 292675.0
1.52500 287602.0
1.53500 284275.0
1.54500 273834.0
1.55500 269273.0
1.56500 276125.0
1.57500 273023.0
1.58500 269314.0
1.59500 279088.0
1.60500 276807.0
1.61500 267288.0
1.62500 269373.0
1.63500 271211.0
1.64500 255112.0
1.65500 245793.0
1.66500 246026.0
1.67500 238056.0
1.68500 231185.0
1.69500 237768.0
1.70500 238653.0
1.71500 230892.0
1.72500 237188.0
1.73500 251775.0
1.74500 252299.0
1.75500 256578.0
1.76500 275094.0
1.77500 277941.0
1.78500 274657.0
1.79500 282848.0
1.80500 288217.0
1.81500 277763.0
1.82500 277223.0
1.83500 293879.0
1.84500 301151.0
1.85500 318167.0
1.86500 366539.0
1.87500 414213.0
1.88500 484440.0
1.89500 607547.0
1.90500 729640.0
1.91500 860582.0
1.92500 1143820.0
1.93500 1569321.0
1.94500 1950929.0
1.95500 2583413.0
1.96500 4519215.0
1.97500 7757829.0
1.98500 10688160.0
1.99500 11592063.0
2.00500 9886113.0
2.01500 6664195.0
2.02500 3505058.0
2.03500 1673528.0
2.04500 884913.0
2.05500 571723.0
2.06500 415665.0
2.07500 338266.0
2.08500 282741.0
2.09500 222504.0
2.10500 189784.0
2.11500 167819.0
2.12500 133442.0
2.13500 108661.0
2.14500 95342.0
2.15500 80215.0
2.16500 65539.0
2.17500 54094.0
2.18500 46309.0
2.19500 37125.0
2.20500 32157.0
2.21500 30461.0
2.22500 26595.0
2.23500 24247.0
2.24500 24443.0
2.25500 23314.0
2.26500 20545.0
2.27500 19208.0
2.28500 19870.0
2.29500 17763.0
2.30500 16524.0
2.31500 17108.0
2.32500 16778.0
2.33500 15084.0
2.34500 14801.0
2.35500 15762.0
2.36500 14404.0
2.37500 13584.0
2.38500 14328.0
2.39500 14353.0
2.40500 13084.0
2.41500 12610.0
2.42500 13168.0
2.43500 12571.0
2.44500 11473.0
2.45500 11956.0
2.46500 12359.0
2.47500 11399.0
2.48500 11193.0
2.49500 11787.0
2.50500 11441.0
2.51500 10343.0
2.52500 10830.0
2.53500 10952.0
2.54500 9930.0
2.55500 9186.0
2.56500 9546.0
2.57500 9441.0
2.58500 8466.0
2.59500 8350.0
2.60500 8554.0
2.61500 8065.0
2.62500 7680.0
2.63500 8127.0
2.64500 8250.0
2.65500 7363.0
2.66500 7750.0
2.67500 8530.0
2.68500 8004.0
2.69500 7382.0
2.70500 7545.0
2.71500 7522.0
2.72500 6978.0
2.73500 6420.0
2.74500 6643.0
2.75500 6375.0
2.76500 5776.0
2.77500 5839.0
2.78500 6016.0
2.79500 5887.0
2.80500 5584.0
2.81500 6046.0
2.82500 5950.0
2.83500 5683.0
2.84500 5673.0
2.85500 6009.0
2.86500 5728.0
2.87500 5395.0
2.88500 5279.0
2.89500 5493.0
2.90500 5079.0
2.91500 4594.0
2.92500 4690.0
2.93500 4783.0
2.94500 4246.0
2.95500 4270.0
2.96500 4525.0
2.97500 4184.0
2.98500 4167.0
2.99500 4459.0
3.00500 4705.0
3.01500 4277.0
3.02500 4139.0
3.03500 4174.0
3.04500 4123.0
3.05500 3683.0
3.06500 3661.0
3.07500 3809.0
3.08500 3557.0
3.09500 3248.0
3.10500 3363.0
3.11500 3258.0
3.12500 3123.0
3.13500 3191.0
3.14500 3419.0
3.15500 3207.0
3.16500 3044.0
3.17500 3218.0
3.18500 3194.0
3.19500 2991.0
3.20500 2966.0
3.21500 3132.0
3.22500 3058.0
3.23500 2557.0
3.24500 2531.0
3.25500 2600.0
3.26500 2349.0
3.27500 2216.0
3.28500 2232.0
3.29500 2367.0
3.30500 2232.0
3.31500 2209.0
3.32500 2435.0
3.33500 2488.0
3.34500 2361.0
3.35500 2382.0
3.36500 2474.0
3.37500 2367.0
3.38500 2093.0
3.39500 2292.0
3.40500 2234.0
3.41500 1904.0
3.42500 1851.0
3.43500 1860.0
3.44500 1822.0
3.45500 1565.0
3.46500 1619.0
3.47500 1728.0
3.48500 1685.0
3.49500 1553.0
3.50500 1917.0
3.51500 1886.0
3.52500 1799.0
3.53500 1704.0
3.54500 1937.0
3.55500 1899.0
3.56500 1627.0
3.57500 1717.0
3.58500 1816.0
3.59500 1544.0
3.60500 1472.0
3.61500 1608.0
3.62500 1523.0
3.63500 1469.0
3.64500 1603.0
3.65500 1789.0
3.66500 1730.0
3.67500 2036.0
3.68500 2511.0
3.69500 2850.0
3.70500 2815.0
3.71500 3126.0
3.72500 4064.0
3.73500 4903.0
3.74500 4792.0
3.75500 4874.0
3.76500 6657.0
3.77500 10308.0
3.78500 13946.0
3.79500 15644.0
3.80500 14922.0
3.81500 11647.0
3.82500 7959.0
3.83500 4964.0
3.84500 2892.0
3.85500 1998.0
3.86500 1483.0
3.87500 1218.0
3.88500 1035.0
3.89500 986.0
3.90500 918.0
3.91500 912.0
3.92500 842.0
3.93500 851.0
3.94500 862.0
3.95500 829.0
3.96500 809.0
3.97500 742.0
3.98500 769.0
3.99500 788.0
4.00500 739.0
4.01500 802.0
4.02500 758.0
4.03500 769.0
4.04500 703.0
4.05500 705.0
4.06500 719.0
4.07500 769.0
4.08500 658.0
4.09500 741.0
4.10500 698.0
4.11500 650.0
4.12500 621.0
4.13500 672.0
4.14500 593.0
4.15500 600.0
4.16500 592.0
4.17500 587.0
4.18500 577.0
4.19500 582.0
4.20500 605.0
4.21500 505.0
4.22500 527.0
4.23500 516.0
4.24500 573.0
4.25500 571.0
4.26500 536.0
4.27500 579.0
4.28500 556.0
4.29500 516.0
4.30500 551.0
4.31500 528.0
4.32500 568.0
4.33500 452.0
4.34500 501.0
4.35500 427.0
4.36500 438.0
4.37500 473.0
4.38500 415.0
4.39500 451.0
4.40500 413.0
4.41500 443.0
4.42500 440.0
4.43500 462.0
4.44500 446.0
4.45500 387.0
4.46500 419.0
4.47500 419.0
4.48500 445.0
4.49500 386.0
4.50500 438.0
4.51500 401.0
4.52500 368.0
4.53500 417.0
4.54500 407.0
4.55500 362.0
4.56500 344.0
4.57500 300.0
4.58500 299.0
4.59500 279.0
4.60500 288.0
4.61500 276.0
4.62500 275.0
4.63500 326.0
4.64500 296.0
4.65500 297.0
4.66500 275.0
4.67500 300.0
4.68500 260.0
4.69500 267.0
4.70500 282.0
4.71500 272.0
4.72500 261.0
4.73500 295.0
4.74500 266.0
4.75500 243.0
4.76500 231.0
4.77500 243.0
4.78500 260.0
4.79500 251.0
4.80500 233.0
4.81500 214.0
4.82500 189.0
4.83500 207.0
4.84500 257.0
4.85500 224.0
4.86500 212.0
4.87500 247.0
4.88500 215.0
4.89500 246.0
4.90500 182.0
4.91500 263.0
4.92500 220.0
4.93500 222.0
4.94500 260.0
4.95500 309.0
4.96500 270.0
4.97500 259.0
4.98500 273.0
4.99500 265.0
5.00500 272.0
5.01500 273.0
5.02500 308.0
5.03500 261.0
5.04500 299.0
5.05500 268.0
5.06500 265.0
5.07500 268.0
5.08500 237.0
5.09500 199.0
5.10500 188.0
5.11500 204.0
5.12500 182.0
5.13500 145.0
5.14500 184.0
5.15500 195.0
5.16500 200.0
5.17500 181.0
5.18500 195.0
5.19500 196.0
5.20500 184.0
5.21500 205.0
5.22500 236.0
5.23500 212.0
5.24500 225.0
5.25500 185.0
5.26500 240.0
5.27500 222.0
5.28500 224.0
5.29500 201.0
5.30500 223.0
5.31500 228.0
5.32500 245.0
5.33500 209.0
5.34500 178.0
5.35500 162.0
5.36500 194.0
5.37500 215.0
5.38500 223.0
5.39500 221.0
5.40500 217.0
5.41500 326.0
5.42500 323.0
5.43500 236.0
5.44500 285.0
5.45500 236.0
5.46500 258.0
5.47500 297.0
5.48500 331.0
5.49500 329.0
5.50500 461.0
5.51500 548.0
5.52500 671.0
5.53500 940.0
5.54500 1100.0
5.55500 1275.0
5.56500 1675.0
5.57500 2461.0
5.58500 2727.0
5.59500 3206.0
5.60500 3364.0
5.61500 4558.0
5.62500 6251.0
5.63500 7559.0
5.64500 7982.0
5.65500 7177.0
5.66500 5644.0
5.67500 3937.0
5.68500 2782.0
5.69500 1983.0
5.70500 1433.0
5.71500 1026.0
5.72500 731.0
5.73500 643.0
5.74500 511.0
5.75500 406.0
5.76500 382.0
5.77500 311.0
5.78500 324.0
5.79500 253.0
5.80500 263.0
5.81500 216.0
5.82500 193.0
5.83500 213.0
5.84500 209.0
5.85500 193.0
5.86500 188.0
5.87500 147.0
5.88500 182.0
5.89500 157.0
5.90500 169.0
5.91500 159.0
5.92500 119.0
5.93500 122.0
5.94500 135.0
5.95500 129.0
5.96500 139.0
5.97500 153.0
5.98500 136.0
5.99500 108.0
6.00500 104.0
6.01500 118.0
6.02500 109.0
6.03500 102.0
6.04500 92.0
6.05500 85.0
6.06500 97.0
6.07500 107.0
6.08500 87.0
6.09500 97.0
6.10500 87.0
6.11500 88.0
6.12500 96.0
6.13500 94.0
6.14500 105.0
6.15500 142.0
6.16500 115.0
6.17500 97.0
6.18500 93.0
6.19500 109.0
6.20500 100.0
6.21500 97.0
6.22500 97.0
6.23500 119.0
6.24500 125.0
6.25500 111.0
6.26500 96.0
6.27500 99.0
6.28500 83.0
6.29500 107.0
6.30500 98.0
6.31500 112.0
6.32500 93.0
6.33500 100.0
6.34500 100.0
6.35500 101.0
6.36500 112.0
6.37500 125.0
6.38500 116.0
6.39500 102.0
6.40500 120.0
6.41500 98.0
6.42500 92.0
6.43500 101.0
6.44500 130.0
6.45500 133.0
6.46500 142.0
6.47500 148.0
6.48500 94.0
6.49500 139.0
6.50500 151.0
6.51500 141.0
6.52500 189.0
6.53500 150.0
6.54500 133.0
6.55500 160.0
6.56500 109.0
6.57500 107.0
6.58500 122.0
6.59500 121.0
6.60500 128.0
6.61500 118.0
6.62500 129.0
6.63500 137.0
6.64500 115.0
6.65500 116.0
6.66500 131.0
6.67500 99.0
6.68500 96.0
6.69500 86.0
6.70500 105.0
6.71500 83.0
6.72500 81.0
6.73500 75.0
6.74500 88.0
6.75500 104.0
6.76500 114.0
6.77500 87.0
6.78500 78.0
6.79500 97.0
6.80500 91.0
6.81500 121.0
6.82500 97.0
6.83500 105.0
6.84500 82.0
6.85500 95.0
6.86500 94.0
6.87500 117.0
6.88500 100.0
6.89500 73.0
6.90500 75.0
6.91500 89.0
6.92500 73.0
6.93500 113.0
6.94500 98.0
6.95500 88.0
6.96500 97.0
6.97500 113.0
6.98500 112.0
6.99500 144.0
7.00500 121.0
7.01500 154.0
7.02500 143.0
7.03500 104.0
7.04500 99.0
7.05500 88.0
7.06500 96.0
7.07500 126.0
7.08500 85.0
7.09500 107.0
7.10500 105.0
7.11500 104.0
7.12500 122.0
7.13500 129.0
7.14500 125.0
7.15500 117.0
7.16500 106.0
7.17500 87.0
7.18500 87.0
7.19500 84.0
7.20500 91.0
7.21500 101.0
7.22500 113.0
7.23500 87.0
7.24500 119.0
7.25500 177.0
7.26500 159.0
7.27500 114.0
7.28500 100.0
7.29500 124.0
7.30500 109.0
7.31500 71.0
7.32500 118.0
7.33500 104.0
7.34500 101.0
7.35500 119.0
7.36500 109.0
7.37500 107.0
7.38500 126.0
7.39500 148.0
7.40500 151.0
7.41500 195.0
7.42500 220.0
7.43500 245.0
7.44500 277.0
7.45500 323.0
7.46500 336.0
7.47500 431.0
7.48500 578.0
7.49500 599.0
7.50500 679.0
7.51500 592.0
7.52500 488.0
7.53500 400.0
7.54500 291.0
7.55500 265.0
7.56500 208.0
7.57500 187.0
7.58500 163.0
7.59500 136.0
7.60500 126.0
7.61500 117.0
7.62500 112.0
7.63500 100.0
7.64500 146.0
7.65500 125.0
7.66500 133.0
7.67500 84.0
7.68500 103.0
7.69500 113.0
7.70500 117.0
7.71500 107.0
7.72500 112.0
7.73500 120.0
7.74500 102.0
7.75500 122.0
7.76500 115.0
7.77500 78.0
7.78500 69.0
7.79500 78.0
7.80500 91.0
7.81500 69.0
7.82500 97.0
7.83500 86.0
7.84500 73.0
7.85500 113.0
7.86500 108.0
7.87500 114.0
7.88500 58.0
7.89500 65.0
7.90500 95.0
7.91500 83.0
7.92500 78.0
7.93500 88.0
7.94500 98.0
7.95500 119.0
7.96500 100.0
7.97500 97.0
7.98500 128.0
7.99500 126.0
8.00500 133.0
8.01500 110.0
8.02500 128.0
8.03500 95.0
8.04500 86.0
8.05500 91.0
8.06500 76.0
8.07500 80.0
8.08500 59.0
8.09500 81.0
8.10500 81.0
8.11500 69.0
8.12500 113.0
8.13500 109.0
8.14500 109.0
8.15500 110.0
8.16500 87.0
8.17500 93.0
8.18500 79.0
8.19500 80.0
8.20500 83.0
8.21500 72.0
8.22500 80.0
8.23500 88.0
8.24500 98.0
8.25500 122.0
8.26500 105.0
8.27500 65.0
8.28500 91.0
8.29500 91.0
8.30500 92.0
8.31500 65.0
8.32500 57.0
8.33500 71.0
8.34500 83.0
8.35500 80.0
8.36500 102.0
8.37500 109.0
8.38500 115.0
8.39500 103.0
8.40500 71.0
8.41500 114.0
8.42500 104.0
8.43500 89.0
8.44500 93.0
8.45500 78.0
8.46500 99.0
8.47500 84.0
8.48500 88.0
8.49500 112.0
8.50500 96.0
8.51500 117.0
8.52500 110.0
8.53500 110.0
8.54500 75.0
8.55500 62.0
8.56500 53.0
8.57500 85.0
8.58500 46.0
8.59500 64.0
8.60500 61.0
8.61500 66.0
8.62500 67.0
8.63500 71.0
8.64500 73.0
8.65500 62.0
8.66500 77.0
8.67500 97.0
8.68500 74.0
8.69500 72.0
8.70500 95.0
8.71500 98.0
8.72500 81.0
8.73500 68.0
8.74500 86.0
8.75500 67.0
8.76500 73.0
8.77500 69.0
8.78500 76.0
8.79500 67.0
8.80500 58.0
8.81500 58.0
8.82500 73.0
8.83500 97.0
8.84500 82.0
8.85500 66.0
8.86500 71.0
8.87500 59.0
8.88500 74.0
8.89500 55.0
8.90500 40.0
8.91500 56.0
8.92500 63.0
8.93500 59.0
8.94500 37.0
8.95500 41.0
8.96500 71.0
8.97500 72.0
8.98500 64.0
8.99500 73.0
9.00500 70.0
9.01500 79.0
9.02500 52.0
9.03500 71.0
9.04500 77.0
9.05500 73.0
9.06500 50.0
9.07500 44.0
9.08500 58.0
9.09500 51.0
9.10500 38.0
9.11500 42.0
9.12500 57.0
9.13500 46.0
9.14500 30.0
9.15500 47.0
9.16500 45.0
9.17500 26.0
9.18500 29.0
9.19500 31.0
9.20500 43.0
9.21500 52.0
9.22500 71.0
9.23500 50.0
9.24500 72.0
9.25500 59.0
9.26500 55.0
9.27500 73.0
9.28500 88.0
9.29500 74.0
9.30500 62.0
9.31500 78.0
9.32500 91.0
9.33500 90.0
9.34500 95.0
9.35500 79.0
9.36500 98.0
9.37500 90.0
9.38500 82.0
9.39500 75.0
9.40500 71.0
9.41500 90.0
9.42500 69.0
9.43500 57.0
9.44500 92.0
9.45500 75.0
9.46500 77.0
9.47500 62.0
9.48500 73.0
9.49500 65.0
9.50500 70.0
9.51500 62.0
9.52500 73.0
9.53500 51.0
9.54500 58.0
9.55500 69.0
9.56500 65.0
9.57500 46.0
9.58500 54.0
9.59500 74.0
9.60500 75.0
9.61500 60.0
9.62500 61.0
9.63500 56.0
9.64500 62.0
9.65500 65.0
9.66500 61.0
9.67500 59.0
9.68500 85.0
9.69500 71.0
9.70500 67.0
9.71500 78.0
9.72500 114.0
9.73500 95.0
9.74500 73.0
9.75500 75.0
9.76500 64.0
9.77500 52.0
9.78500 64.0
9.79500 55.0
9.80500 58.0
9.81500 74.0
9.82500 91.0
9.83500 72.0
9.84500 97.0
9.85500 60.0
9.86500 71.0
9.87500 62.0
9.88500 55.0
9.89500 72.0
9.90500 68.0
9.91500 52.0
9.92500 58.0
9.93500 65.0
9.94500 82.0
9.95500 111.0
9.96500 82.0
9.97500 58.0
9.98500 69.0
9.99500 54.0
