0.00500 41663432.0
0.01500 47455060.0
0.02500 39744360.0
0.03500 26059464.0
0.04500 13416678.0
0.05500 6362676.0
0.06500 3622307.0
0.07500 3272025.0
0.08500 3717380.0
0.09500 4085936.0
0.10500 4539619.0
0.11500 5047644.0
0.12500 5447664.0
0.13500 6072053.0
0.14500 6498250.0
0.15500 7015541.0
0.16500 7593487.0
0.17500 7931118.0
0.18500 8549691.0
0.19500 9042774.0
0.20500 9513894.0
0.21500 10278256.0
0.22500 10618028.0
0.23500 11298837.0
0.24500 11878113.0
0.25500 12265638.0
0.26500 13036410.0
0.27500 13363577.0
0.28500 13925148.0
0.29500 14596059.0
0.30500 15027994.0
0.31500 15930166.0
0.32500 16289637.0
0.33500 16669486.0
0.34500 17421748.0
0.35500 17830404.0
0.36500 18750004.0
0.37500 19167372.0
0.38500 19383916.0
0.39500 20166770.0
0.40500 20299616.0
0.41500 21035718.0
0.42500 21604950.0
0.43500 21890838.0
0.44500 22734260.0
0.45500 23114912.0
0.46500 23709488.0
0.47500 24335332.0
0.48500 24450824.0
0.49500 25146932.0
0.50500 25481508.0
0.51500 25955554.0
0.52500 26632080.0
0.53500 26597148.0
0.54500 27217668.0
0.55500 27636596.0
0.56500 28021556.0
0.57500 28572028.0
0.58500 28686932.0
0.59500 29307068.0
0.60500 29774048.0
0.61500 29933862.0
0.62500 30468442.0
0.63500 30276992.0
0.64500 30616860.0
0.65500 30969084.0
0.66500 30830708.0
0.67500 30817904.0
0.68500 30144600.0
0.69500 29194208.0
0.70500 28095266.0
0.71500 25676796.0
0.72500 22746552.0
0.73500 19258120.0
0.74500 15961497.0
0.75500 13964889.0
0.76500 11995620.0
0.77500 10596525.0
0.78500 9418608.0
0.79500 8368653.0
0.80500 7686911.0
0.81500 6933440.0
0.82500 6368860.0
0.83500 5851479.0
0.84500 5263195.0
0.85500 4905837.0
0.86500 4561027.0
0.87500 4232319.0
0.88500 3993659.0
0.89500 3708376.0
0.90500 3502730.0
0.91500 3307219.0
0.92500 3124099.0
0.93500 2940184.0
0.94500 2738074.0
0.95500 2605900.0
0.96500 2473649.0
0.97500 2331414.0
0.98500 2215310.0
0.99500 2112870.0
1.00500 2012816.0
1.01500 1929493.0
1.02500 1834379.0
1.03500 1768895.0
1.04500 1685288.0
1.05500 1609537.0
1.06500 1544286.0
1.07500 1468823.0
1.08500 1412431.0
1.09500 1344719.0
1.10500 1286011.0
1.11500 1238760.0
1.12500 1184904.0
1.13500 1134267.0
1.14500 1086586.0
1.15500 1046171.0
1.16500 1016166.0
1.17500 979661.0
1.18500 945747.0
1.19500 913036.0
1.20500 879906.0
1.21500 854216.0
1.22500 825813.0
1.23500 792077.0
1.24500 764193.0
1.25500 734995.0
1.26500 717673.0
1.27500 695231.0
1.28500 671507.0
1.29500 649927.0
1.30500 626822.0
1.31500 614141.0
1.32500 598689.0
1.33500 582869.0
1.34500 572383.0
1.35500 554683.0
1.36500 536365.0
1.37500 520705.0
1.38500 503500.0
1.39500 489823.0
1.40500 474637.0
1.41500 461860.0
1.42500 454676.0
1.43500 440916.0
1.44500 435003.0
1.45500 422772.0
1.46500 411267.0
1.47500 401100.0
1.48500 390436.0
1.49500 378252.0
1.50500 368240.0
1.51500 358401.0
1.52500 353174.0
1.53500 347863.0
1.54500 344818.0
1.55500 338979.0
1.56500 332011.0
1.57500 323427.0
1.58500 315842.0
1.59500 309326.0
1.60500 302062.0
1.61500 297617.0
1.62500 293683.0
1.63500 288944.0
1.64500 289795.0
1.65500 289394.0
1.66500 286873.0
1.67500 283550.0
1.68500 280814.0
1.69500 277711.0
1.70500 271025.0
1.71500 267238.0
1.72500 264022.0
1.73500 264167.0
1.74500 266345.0
1.75500 268078.0
1.76500 271663.0
1.77500 276969.0
1.78500 277952.0
1.79500 280613.0
1.80500 287062.0
1.81500 289140.0
1.82500 295757.0
1.83500 301317.0
1.84500 306210.0
1.85500 314250.0
1.86500 322888.0
1.87500 335759.0
1.88500 349903.0
1.89500 363942.0
1.90500 383564.0
1.91500 409981.0
1.92500 449022.0
1.93500 493286.0
1.94500 553076.0
1.95500 642665.0
1.96500 774712.0
1.97500 981967.0
1.98500 1300514.0
1.99500 1885653.0
2.00500 3049942.0
2.01500 5671468.0
2.02500 10155401.0
2.03500 14549223.0
2.04500 15685312.0
2.05500 11759664.0
2.06500 5991091.0
2.07500 2318146.0
2.08500 1001302.0
2.09500 524913.0
2.10500 312980.0
2.11500 195940.0
2.12500 129446.0
2.13500 88404.0
2.14500 61220.0
2.15500 43205.0
2.16500 31495.0
2.17500 24024.0
2.18500 19524.0
2.19500 15766.0
2.20500 13153.0
2.21500 11474.0
2.22500 9582.0
2.23500 8236.0
2.24500 7172.0
2.25500 6176.0
2.26500 5687.0
2.27500 5575.0
2.28500 5385.0
2.29500 5096.0
2.30500 5107.0
2.31500 4913.0
2.32500 4897.0
2.33500 4716.0
2.34500 4509.0
2.35500 4419.0
2.36500 4575.0
2.37500 4615.0
2.38500 4609.0
2.39500 4788.0
2.40500 5050.0
2.41500 4840.0
2.42500 4904.0
2.43500 4659.0
2.44500 4342.0
2.45500 4435.0
2.46500 4539.0
2.47500 4625.0
2.48500 4777.0
2.49500 4694.0
2.50500 4613.0
2.51500 4735.0
2.52500 4751.0
2.53500 4786.0
2.54500 4799.0
2.55500 4581.0
2.56500 4568.0
2.57500 4432.0
2.58500 4453.0
2.59500 4460.0
2.60500 4335.0
2.61500 4473.0
2.62500 4548.0
2.63500 4486.0
2.64500 4468.0
2.65500 4494.0
2.66500 4381.0
2.67500 4472.0
2.68500 4264.0
2.69500 4234.0
2.70500 4313.0
2.71500 4363.0
2.72500 4261.0
2.73500 4218.0
2.74500 4055.0
2.75500 4175.0
2.76500 4166.0
2.77500 4271.0
2.78500 4145.0
2.79500 4011.0
2.80500 3791.0
2.81500 3965.0
2.82500 3910.0
2.83500 3713.0
2.84500 3571.0
2.85500 3448.0
2.86500 3362.0
2.87500 3324.0
2.88500 3242.0
2.89500 3111.0
2.90500 3116.0
2.91500 3014.0
2.92500 3055.0
2.93500 3022.0
2.94500 3064.0
2.95500 2972.0
2.96500 3009.0
2.97500 2891.0
2.98500 3122.0
2.99500 2947.0
3.00500 2962.0
3.01500 2925.0
3.02500 2913.0
3.03500 2983.0
3.04500 2940.0
3.05500 2883.0
3.06500 2851.0
3.07500 2827.0
3.08500 2739.0
3.09500 2737.0
3.10500 2825.0
3.11500 2788.0
3.12500 2799.0
3.13500 2496.0
3.14500 2530.0
3.15500 2538.0
3.16500 2311.0
3.17500 2444.0
3.18500 2567.0
3.19500 2373.0
3.20500 2466.0
3.21500 2442.0
3.22500 2370.0
3.23500 2445.0
3.24500 2533.0
3.25500 2489.0
3.26500 2447.0
3.27500 2336.0
3.28500 2277.0
3.29500 2177.0
3.30500 2071.0
3.31500 2182.0
3.32500 2203.0
3.33500 2178.0
3.34500 2286.0
3.35500 2436.0
3.36500 2419.0
3.37500 2388.0
3.38500 2386.0
3.39500 2356.0
3.40500 2269.0
3.41500 2235.0
3.42500 2220.0
3.43500 2176.0
3.44500 2171.0
3.45500 2126.0
3.46500 2421.0
3.47500 2552.0
3.48500 2680.0
3.49500 2809.0
3.50500 2943.0
3.51500 3107.0
3.52500 2952.0
3.53500 2742.0
3.54500 2624.0
3.55500 2659.0
3.56500 2537.0
3.57500 2769.0
3.58500 2902.0
3.59500 3050.0
3.60500 3131.0
3.61500 3243.0
3.62500 3336.0
3.63500 3489.0
3.64500 3656.0
3.65500 3877.0
3.66500 3690.0
3.67500 3915.0
3.68500 4069.0
3.69500 4408.0
3.70500 4923.0
3.71500 5303.0
3.72500 5626.0
3.73500 5996.0
3.74500 6470.0
3.75500 7070.0
3.76500 7991.0
3.77500 9097.0
3.78500 10410.0
3.79500 12870.0
3.80500 16326.0
3.81500 21650.0
3.82500 30403.0
3.83500 45803.0
3.84500 75346.0
3.85500 150578.0
3.86500 332421.0
3.87500 626929.0
3.88500 867674.0
3.89500 804965.0
3.90500 490910.0
3.91500 216280.0
3.92500 81674.0
3.93500 37131.0
3.94500 20139.0
3.95500 12955.0
3.96500 8990.0
3.97500 6447.0
3.98500 4709.0
3.99500 3490.0
4.00500 2786.0
4.01500 2182.0
4.02500 1823.0
4.03500 1631.0
4.04500 1288.0
4.05500 1100.0
4.06500 965.0
4.07500 873.0
4.08500 808.0
4.09500 751.0
4.10500 686.0
4.11500 566.0
4.12500 581.0
4.13500 526.0
4.14500 522.0
4.15500 467.0
4.16500 495.0
4.17500 468.0
4.18500 489.0
4.19500 471.0
4.20500 464.0
4.21500 432.0
4.22500 372.0
4.23500 348.0
4.24500 390.0
4.25500 378.0
4.26500 379.0
4.27500 408.0
4.28500 381.0
4.29500 375.0
4.30500 366.0
4.31500 354.0
4.32500 328.0
4.33500 321.0
4.34500 356.0
4.35500 358.0
4.36500 343.0
4.37500 323.0
4.38500 306.0
4.39500 373.0
4.40500 387.0
4.41500 343.0
4.42500 391.0
4.43500 374.0
4.44500 332.0
4.45500 326.0
4.46500 336.0
4.47500 343.0
4.48500 336.0
4.49500 271.0
4.50500 306.0
4.51500 334.0
4.52500 356.0
4.53500 337.0
4.54500 329.0
4.55500 300.0
4.56500 311.0
4.57500 317.0
4.58500 314.0
4.59500 322.0
4.60500 320.0
4.61500 369.0
4.62500 395.0
4.63500 406.0
4.64500 382.0
4.65500 403.0
4.66500 377.0
4.67500 353.0
4.68500 353.0
4.69500 383.0
4.70500 325.0
4.71500 341.0
4.72500 316.0
4.73500 325.0
4.74500 314.0
4.75500 332.0
4.76500 370.0
4.77500 365.0
4.78500 373.0
4.79500 354.0
4.80500 300.0
4.81500 272.0
4.82500 297.0
4.83500 324.0
4.84500 318.0
4.85500 312.0
4.86500 279.0
4.87500 338.0
4.88500 306.0
4.89500 317.0
4.90500 320.0
4.91500 327.0
4.92500 351.0
4.93500 286.0
4.94500 328.0
4.95500 310.0
4.96500 303.0
4.97500 294.0
4.98500 295.0
4.99500 284.0
5.00500 325.0
5.01500 299.0
5.02500 309.0
5.03500 280.0
5.04500 267.0
5.05500 308.0
5.06500 268.0
5.07500 319.0
5.08500 283.0
5.09500 301.0
5.10500 307.0
5.11500 283.0
5.12500 302.0
5.13500 316.0
5.14500 307.0
5.15500 300.0
5.16500 329.0
5.17500 320.0
5.18500 303.0
5.19500 316.0
5.20500 333.0
5.21500 300.0
5.22500 306.0
5.23500 321.0
5.24500 337.0
5.25500 313.0
5.26500 292.0
5.27500 342.0
5.28500 318.0
5.29500 344.0
5.30500 309.0
5.31500 288.0
5.32500 261.0
5.33500 295.0
5.34500 305.0
5.35500 325.0
5.36500 315.0
5.37500 302.0
5.38500 340.0
5.39500 324.0
5.40500 353.0
5.41500 313.0
5.42500 276.0
5.43500 304.0
5.44500 294.0
5.45500 230.0
5.46500 251.0
5.47500 256.0
5.48500 273.0
5.49500 263.0
5.50500 277.0
5.51500 333.0
5.52500 243.0
5.53500 288.0
5.54500 305.0
5.55500 281.0
5.56500 290.0
5.57500 297.0
5.58500 289.0
5.59500 271.0
5.60500 282.0
5.61500 317.0
5.62500 343.0
5.63500 350.0
5.64500 399.0
5.65500 387.0
5.66500 379.0
5.67500 351.0
5.68500 436.0
5.69500 482.0
5.70500 555.0
5.71500 669.0
5.72500 910.0
5.73500 1324.0
5.74500 2128.0
5.75500 3611.0
5.76500 5302.0
5.77500 5527.0
5.78500 4248.0
5.79500 2540.0
5.80500 1339.0
5.81500 650.0
5.82500 404.0
5.83500 235.0
5.84500 139.0
5.85500 134.0
5.86500 130.0
5.87500 111.0
5.88500 143.0
5.89500 160.0
5.90500 193.0
5.91500 228.0
5.92500 211.0
5.93500 238.0
5.94500 216.0
5.95500 201.0
5.96500 198.0
5.97500 197.0
5.98500 133.0
5.99500 141.0
6.00500 172.0
6.01500 189.0
6.02500 212.0
6.03500 173.0
6.04500 141.0
6.05500 184.0
6.06500 175.0
6.07500 148.0
6.08500 163.0
6.09500 144.0
6.10500 125.0
6.11500 143.0
6.12500 155.0
6.13500 153.0
6.14500 174.0
6.15500 184.0
6.16500 180.0
6.17500 191.0
6.18500 185.0
6.19500 146.0
6.20500 189.0
6.21500 200.0
6.22500 238.0
6.23500 188.0
6.24500 153.0
6.25500 199.0
6.26500 194.0
6.27500 196.0
6.28500 226.0
6.29500 219.0
6.30500 190.0
6.31500 201.0
6.32500 172.0
6.33500 177.0
6.34500 183.0
6.35500 241.0
6.36500 268.0
6.37500 222.0
6.38500 193.0
6.39500 179.0
6.40500 203.0
6.41500 235.0
6.42500 228.0
6.43500 214.0
6.44500 190.0
6.45500 190.0
6.46500 185.0
6.47500 150.0
6.48500 141.0
6.49500 150.0
6.50500 166.0
6.51500 134.0
6.52500 150.0
6.53500 184.0
6.54500 180.0
6.55500 190.0
6.56500 163.0
6.57500 169.0
6.58500 177.0
6.59500 167.0
6.60500 166.0
6.61500 145.0
6.62500 156.0
6.63500 157.0
6.64500 169.0
6.65500 176.0
6.66500 206.0
6.67500 246.0
6.68500 137.0
6.69500 139.0
6.70500 145.0
6.71500 127.0
6.72500 144.0
6.73500 142.0
6.74500 89.0
6.75500 105.0
6.76500 99.0
6.77500 149.0
6.78500 140.0
6.79500 143.0
6.80500 177.0
6.81500 198.0
6.82500 227.0
6.83500 173.0
6.84500 146.0
6.85500 161.0
6.86500 139.0
6.87500 165.0
6.88500 155.0
6.89500 132.0
6.90500 107.0
6.91500 113.0
6.92500 134.0
6.93500 119.0
6.94500 134.0
6.95500 125.0
6.96500 101.0
6.97500 115.0
6.98500 135.0
6.99500 144.0
7.00500 134.0
7.01500 122.0
7.02500 123.0
7.03500 138.0
7.04500 149.0
7.05500 138.0
7.06500 130.0
7.07500 142.0
7.08500 118.0
7.09500 119.0
7.10500 126.0
7.11500 114.0
7.12500 96.0
7.13500 98.0
7.14500 78.0
7.15500 50.0
7.16500 67.0
7.17500 65.0
7.18500 89.0
7.19500 99.0
7.20500 101.0
7.21500 96.0
7.22500 98.0
7.23500 92.0
7.24500 72.0
7.25500 100.0
7.26500 119.0
7.27500 113.0
7.28500 135.0
7.29500 99.0
7.30500 91.0
7.31500 89.0
7.32500 82.0
7.33500 117.0
7.34500 122.0
7.35500 105.0
7.36500 110.0
7.37500 64.0
7.38500 107.0
7.39500 128.0
7.40500 101.0
7.41500 82.0
7.42500 83.0
7.43500 72.0
7.44500 97.0
7.45500 98.0
7.46500 81.0
7.47500 71.0
7.48500 75.0
7.49500 64.0
7.50500 95.0
7.51500 54.0
7.52500 61.0
7.53500 69.0
7.54500 86.0
7.55500 90.0
7.56500 83.0
7.57500 103.0
7.58500 112.0
7.59500 139.0
7.60500 170.0
7.61500 224.0
7.62500 287.0
7.63500 501.0
7.64500 1043.0
7.65500 1963.0
7.66500 3140.0
7.67500 3691.0
7.68500 3123.0
7.69500 2442.0
7.70500 1437.0
7.71500 778.0
7.72500 535.0
7.73500 328.0
7.74500 214.0
7.75500 175.0
7.76500 165.0
7.77500 144.0
7.78500 117.0
7.79500 148.0
7.80500 102.0
7.81500 97.0
7.82500 85.0
7.83500 121.0
7.84500 90.0
7.85500 86.0
7.86500 75.0
7.87500 87.0
7.88500 62.0
7.89500 73.0
7.90500 67.0
7.91500 69.0
7.92500 70.0
7.93500 56.0
7.94500 70.0
7.95500 73.0
7.96500 84.0
7.97500 70.0
7.98500 73.0
7.99500 84.0
8.00500 90.0
8.01500 87.0
8.02500 81.0
8.03500 97.0
8.04500 93.0
8.05500 63.0
8.06500 63.0
8.07500 74.0
8.08500 76.0
8.09500 112.0
8.10500 75.0
8.11500 70.0
8.12500 87.0
8.13500 69.0
8.14500 68.0
8.15500 61.0
8.16500 81.0
8.17500 118.0
8.18500 87.0
8.19500 88.0
8.20500 120.0
8.21500 78.0
8.22500 77.0
8.23500 70.0
8.24500 61.0
8.25500 82.0
8.26500 90.0
8.27500 77.0
8.28500 75.0
8.29500 83.0
8.30500 81.0
8.31500 57.0
8.32500 75.0
8.33500 88.0
8.34500 72.0
8.35500 97.0
8.36500 113.0
8.37500 87.0
8.38500 66.0
8.39500 77.0
8.40500 81.0
8.41500 111.0
8.42500 101.0
8.43500 78.0
8.44500 92.0
8.45500 83.0
8.46500 85.0
8.47500 86.0
8.48500 87.0
8.49500 94.0
8.50500 110.0
8.51500 107.0
8.52500 91.0
8.53500 96.0
8.54500 81.0
8.55500 72.0
8.56500 63.0
8.57500 60.0
8.58500 61.0
8.59500 64.0
8.60500 76.0
8.61500 81.0
8.62500 80.0
8.63500 114.0
8.64500 123.0
8.65500 82.0
8.66500 75.0
8.67500 104.0
8.68500 97.0
8.69500 98.0
8.70500 97.0
8.71500 89.0
8.72500 93.0
8.73500 94.0
8.74500 97.0
8.75500 86.0
8.76500 87.0
8.77500 76.0
8.78500 92.0
8.79500 59.0
8.80500 76.0
8.81500 74.0
8.82500 76.0
8.83500 79.0
8.84500 80.0
8.85500 61.0
8.86500 87.0
8.87500 114.0
8.88500 139.0
8.89500 109.0
8.90500 107.0
8.91500 136.0
8.92500 89.0
8.93500 99.0
8.94500 91.0
8.95500 115.0
8.96500 93.0
8.97500 97.0
8.98500 98.0
8.99500 132.0
9.00500 136.0
9.01500 123.0
9.02500 114.0
9.03500 98.0
9.04500 116.0
9.05500 103.0
9.06500 120.0
9.07500 104.0
9.08500 140.0
9.09500 129.0
9.10500 114.0
9.11500 70.0
9.12500 58.0
9.13500 90.0
9.14500 74.0
9.15500 82.0
9.16500 69.0
9.17500 75.0
9.18500 69.0
9.19500 59.0
9.20500 63.0
9.21500 76.0
9.22500 79.0
9.23500 74.0
9.24500 85.0
9.25500 89.0
9.26500 82.0
9.27500 82.0
9.28500 93.0
9.29500 84.0
9.30500 81.0
9.31500 77.0
9.32500 101.0
9.33500 105.0
9.34500 91.0
9.35500 83.0
9.36500 76.0
9.37500 71.0
9.38500 74.0
9.39500 103.0
9.40500 55.0
9.41500 80.0
9.42500 70.0
9.43500 78.0
9.44500 66.0
9.45500 72.0
9.46500 87.0
9.47500 111.0
9.48500 140.0
9.49500 123.0
9.50500 180.0
9.51500 161.0
9.52500 256.0
9.53500 300.0
9.54500 446.0
9.55500 719.0
9.56500 1253.0
9.57500 1693.0
9.58500 1696.0
9.59500 1444.0
9.60500 1216.0
9.61500 755.0
9.62500 532.0
9.63500 375.0
9.64500 263.0
9.65500 243.0
9.66500 219.0
9.67500 181.0
9.68500 173.0
9.69500 163.0
9.70500 144.0
9.71500 118.0
9.72500 75.0
9.73500 94.0
9.74500 113.0
9.75500 120.0
9.76500 110.0
9.77500 88.0
9.78500 87.0
9.79500 99.0
9.80500 75.0
9.81500 81.0
9.82500 91.0
9.83500 105.0
9.84500 105.0
9.85500 129.0
9.86500 153.0
9.87500 212.0
9.88500 191.0
9.89500 145.0
9.90500 161.0
9.91500 131.0
9.92500 131.0
9.93500 153.0
9.94500 205.0
9.95500 155.0
9.96500 131.0
9.97500 138.0
9.98500 101.0
9.99500 148.0
10.00500 169.0
10.01500 215.0
10.02500 154.0
10.03500 158.0
10.04500 147.0
10.05500 127.0
10.06500 124.0
10.07500 138.0
10.08500 157.0
10.09500 144.0
10.10500 183.0
10.11500 214.0
10.12500 202.0
10.13500 194.0
10.14500 166.0
10.15500 160.0
10.16500 132.0
10.17500 164.0
10.18500 164.0
10.19500 184.0
10.20500 147.0
10.21500 139.0
10.22500 142.0
10.23500 160.0
10.24500 129.0
10.25500 138.0
10.26500 127.0
10.27500 113.0
10.28500 95.0
10.29500 83.0
10.30500 171.0
10.31500 193.0
10.32500 184.0
10.33500 148.0
10.34500 179.0
10.35500 164.0
10.36500 167.0
10.37500 173.0
10.38500 120.0
10.39500 128.0
10.40500 114.0
10.41500 135.0
10.42500 122.0
10.43500 132.0
10.44500 117.0
10.45500 83.0
10.46500 102.0
10.47500 133.0
10.48500 96.0
10.49500 86.0
10.50500 97.0
10.51500 99.0
10.52500 83.0
10.53500 60.0
10.54500 91.0
10.55500 75.0
10.56500 99.0
10.57500 109.0
10.58500 121.0
10.59500 106.0
10.60500 100.0
10.61500 110.0
10.62500 92.0
10.63500 107.0
10.64500 109.0
10.65500 88.0
10.66500 97.0
10.67500 115.0
10.68500 156.0
10.69500 139.0
10.70500 59.0
10.71500 72.0
10.72500 121.0
10.73500 104.0
10.74500 103.0
10.75500 112.0
10.76500 121.0
10.77500 124.0
10.78500 104.0
10.79500 145.0
10.80500 119.0
10.81500 116.0
10.82500 109.0
10.83500 102.0
10.84500 133.0
10.85500 143.0
10.86500 154.0
10.87500 151.0
10.88500 104.0
10.89500 116.0
10.90500 101.0
10.91500 122.0
10.92500 101.0
10.93500 125.0
10.94500 122.0
10.95500 128.0
10.96500 174.0
10.97500 178.0
10.98500 168.0
10.99500 141.0
11.00500 145.0
11.01500 174.0
11.02500 169.0
11.03500 142.0
11.04500 147.0
11.05500 146.0
11.06500 160.0
11.07500 105.0
11.08500 100.0
11.09500 101.0
11.10500 75.0
11.11500 78.0
11.12500 92.0
11.13500 106.0
11.14500 92.0
11.15500 131.0
11.16500 116.0
11.17500 127.0
11.18500 128.0
11.19500 157.0
11.20500 188.0
11.21500 176.0
11.22500 175.0
11.23500 193.0
11.24500 124.0
11.25500 111.0
11.26500 156.0
11.27500 114.0
11.28500 115.0
11.29500 106.0
11.30500 157.0
11.31500 132.0
11.32500 119.0
11.33500 164.0
11.34500 193.0
11.35500 164.0
11.36500 143.0
11.37500 123.0
11.38500 134.0
11.39500 101.0
11.40500 100.0
11.41500 108.0
11.42500 124.0
11.43500 103.0
11.44500 96.0
11.45500 103.0
11.46500 152.0
11.47500 201.0
11.48500 241.0
11.49500 291.0
11.50500 233.0
11.51500 245.0
11.52500 210.0
11.53500 130.0
11.54500 149.0
11.55500 129.0
11.56500 128.0
11.57500 123.0
11.58500 153.0
11.59500 150.0
11.60500 196.0
11.61500 132.0
11.62500 152.0
11.63500 233.0
11.64500 199.0
11.65500 163.0
11.66500 121.0
11.67500 81.0
11.68500 96.0
11.69500 99.0
11.70500 133.0
11.71500 134.0
11.72500 160.0
11.73500 110.0
11.74500 136.0
11.75500 157.0
11.76500 157.0
11.77500 143.0
11.78500 131.0
11.79500 97.0
11.80500 105.0
11.81500 129.0
11.82500 102.0
11.83500 138.0
11.84500 117.0
11.85500 120.0
11.86500 122.0
11.87500 131.0
11.88500 132.0
11.89500 111.0
11.90500 105.0
11.91500 122.0
11.92500 83.0
11.93500 55.0
11.94500 113.0
11.95500 93.0
11.96500 94.0
11.97500 133.0
11.98500 129.0
11.99500 139.0
