0.00500 33333286.0
0.01500 34914452.0
0.02500 25230832.0
0.03500 13780050.0
0.04500 6034840.0
0.05500 2599594.0
0.06500 1804204.0
0.07500 1859734.0
0.08500 2158473.0
0.09500 2391156.0
0.10500 2700213.0
0.11500 3031653.0
0.12500 3279082.0
0.13500 3678534.0
0.14500 3917009.0
0.15500 4205050.0
0.16500 4589133.0
0.17500 4780228.0
0.18500 5201159.0
0.19500 5426721.0
0.20500 5665546.0
0.21500 6091581.0
0.22500 6317589.0
0.23500 6795053.0
0.24500 7047071.0
0.25500 7158377.0
0.26500 7699549.0
0.27500 7901787.0
0.28500 8282215.0
0.29500 8685542.0
0.30500 8740245.0
0.31500 9247138.0
0.32500 9489727.0
0.33500 9837930.0
0.34500 10250505.0
0.35500 10421780.0
0.36500 10951273.0
0.37500 11227484.0
0.38500 11563013.0
0.39500 12072064.0
0.40500 12005244.0
0.41500 12473600.0
0.42500 12860116.0
0.43500 13081891.0
0.44500 13571247.0
0.45500 13664291.0
0.46500 13983730.0
0.47500 14488257.0
0.48500 14637727.0
0.49500 15271489.0
0.50500 15167678.0
0.51500 15426731.0
0.52500 15938010.0
0.53500 16182330.0
0.54500 16747047.0
0.55500 16768308.0
0.56500 16884932.0
0.57500 17425442.0
0.58500 17599424.0
0.59500 17994512.0
0.60500 18071512.0
0.61500 17821680.0
0.62500 18311582.0
0.63500 18336758.0
0.64500 18452632.0
0.65500 18276268.0
0.66500 17651356.0
0.67500 17467200.0
0.68500 16455427.0
0.69500 14801330.0
0.70500 12967843.0
0.71500 10781868.0
0.72500 9321881.0
0.73500 7927991.0
0.74500 6883330.0
0.75500 6114843.0
0.76500 5345945.0
0.77500 4853432.0
0.78500 4419800.0
0.79500 4007671.0
0.80500 3734166.0
0.81500 3392561.0
0.82500 3165316.0
0.83500 2955331.0
0.84500 2728316.0
0.85500 2588199.0
0.86500 2429008.0
0.87500 2277953.0
0.88500 2170742.0
0.89500 2026700.0
0.90500 1916573.0
0.91500 1786622.0
0.92500 1683996.0
0.93500 1616015.0
0.94500 1526464.0
0.95500 1452755.0
0.96500 1388897.0
0.97500 1318020.0
0.98500 1278604.0
0.99500 1220549.0
1.00500 1177470.0
1.01500 1113454.0
1.02500 1053114.0
1.03500 1027707.0
1.04500 984810.0
1.05500 950184.0
1.06500 913791.0
1.07500 870723.0
1.08500 845932.0
1.09500 813842.0
1.10500 808699.0
1.11500 772072.0
1.12500 741712.0
1.13500 719477.0
1.14500 696619.0
1.15500 676274.0
1.16500 655455.0
1.17500 625570.0
1.18500 605019.0
1.19500 586883.0
1.20500 563002.0
1.21500 551321.0
1.22500 536981.0
1.23500 519864.0
1.24500 507497.0
1.25500 490145.0
1.26500 481058.0
1.27500 466281.0
1.28500 452603.0
1.29500 445520.0
1.30500 433077.0
1.31500 425950.0
1.32500 412416.0
1.33500 394898.0
1.34500 385290.0
1.35500 371470.0
1.36500 365884.0
1.37500 359200.0
1.38500 348625.0
1.39500 342443.0
1.40500 337794.0
1.41500 331461.0
1.42500 323113.0
1.43500 313526.0
1.44500 311306.0
1.45500 306536.0
1.46500 299227.0
1.47500 291984.0
1.48500 279977.0
1.49500 275807.0
1.50500 266524.0
1.51500 257711.0
1.52500 251244.0
1.53500 248519.0
1.54500 245772.0
1.55500 246301.0
1.56500 246616.0
1.57500 245254.0
1.58500 243183.0
1.59500 238429.0
1.60500 231478.0
1.61500 229440.0
1.62500 226918.0
1.63500 227870.0
1.64500 229492.0
1.65500 230944.0
1.66500 226507.0
1.67500 224198.0
1.68500 226539.0
1.69500 226911.0
1.70500 225017.0
1.71500 223189.0
1.72500 226362.0
1.73500 226457.0
1.74500 230018.0
1.75500 236189.0
1.76500 239607.0
1.77500 244256.0
1.78500 252476.0
1.79500 258643.0
1.80500 262317.0
1.81500 271490.0
1.82500 286826.0
1.83500 297215.0
1.84500 311793.0
1.85500 336245.0
1.86500 364529.0
1.87500 397198.0
1.88500 446792.0
1.89500 525660.0
1.90500 632893.0
1.91500 823977.0
1.92500 1133159.0
1.93500 1634653.0
1.94500 2653589.0
1.95500 4309823.0
1.96500 6290797.0
1.97500 7642085.0
1.98500 7449808.0
1.99500 5848609.0
2.00500 3840951.0
2.01500 2300038.0
2.02500 1461333.0
2.03500 1056843.0
2.04500 776746.0
2.05500 582300.0
2.06500 477626.0
2.07500 384912.0
2.08500 311836.0
2.09500 262126.0
2.10500 217843.0
2.11500 185148.0
2.12500 156036.0
2.13500 137608.0
2.14500 118813.0
2.15500 101139.0
2.16500 92184.0
2.17500 82282.0
2.18500 72631.0
2.19500 66384.0
2.20500 58991.0
2.21500 53462.0
2.22500 49965.0
2.23500 47062.0
2.24500 44765.0
2.25500 41066.0
2.26500 39456.0
2.27500 38097.0
2.28500 34846.0
2.29500 32907.0
2.30500 31753.0
2.31500 30101.0
2.32500 28641.0
2.33500 26925.0
2.34500 26297.0
2.35500 24887.0
2.36500 23357.0
2.37500 23713.0
2.38500 22540.0
2.39500 21326.0
2.40500 20621.0
2.41500 19412.0
2.42500 19261.0
2.43500 18085.0
2.44500 18409.0
2.45500 17824.0
2.46500 16801.0
2.47500 16887.0
2.48500 16676.0
2.49500 16165.0
2.50500 15280.0
2.51500 15072.0
2.52500 14540.0
2.53500 14078.0
2.54500 13879.0
2.55500 13870.0
2.56500 12932.0
2.57500 12573.0
2.58500 12641.0
2.59500 11976.0
2.60500 11675.0
2.61500 11268.0
2.62500 11164.0
2.63500 11141.0
2.64500 10638.0
2.65500 10783.0
2.66500 10799.0
2.67500 10266.0
2.68500 10011.0
2.69500 9809.0
2.70500 9386.0
2.71500 8808.0
2.72500 8733.0
2.73500 8460.0
2.74500 8178.0
2.75500 7966.0
2.76500 8228.0
2.77500 7900.0
2.78500 7585.0
2.79500 7348.0
2.80500 7408.0
2.81500 7120.0
2.82500 6947.0
2.83500 7190.0
2.84500 6851.0
2.85500 6526.0
2.86500 6480.0
2.87500 6167.0
2.88500 5912.0
2.89500 5865.0
2.90500 5795.0
2.91500 5850.0
2.92500 5273.0
2.93500 5200.0
2.94500 5106.0
2.95500 4973.0
2.96500 4805.0
2.97500 4893.0
2.98500 4791.0
2.99500 4599.0
3.00500 4505.0
3.01500 4591.0
3.02500 4309.0
3.03500 4095.0
3.04500 3993.0
3.05500 3867.0
3.06500 3831.0
3.07500 3597.0
3.08500 3567.0
3.09500 3596.0
3.10500 3382.0
3.11500 3289.0
3.12500 3178.0
3.13500 2981.0
3.14500 3020.0
3.15500 3101.0
3.16500 2965.0
3.17500 2734.0
3.18500 2669.0
3.19500 2865.0
3.20500 2793.0
3.21500 2553.0
3.22500 2619.0
3.23500 2582.0
3.24500 2433.0
3.25500 2320.0
3.26500 2288.0
3.27500 2330.0
3.28500 2259.0
3.29500 2192.0
3.30500 2314.0
3.31500 2241.0
3.32500 2160.0
3.33500 2247.0
3.34500 2299.0
3.35500 2204.0
3.36500 2086.0
3.37500 2009.0
3.38500 1892.0
3.39500 1742.0
3.40500 1738.0
3.41500 1670.0
3.42500 1691.0
3.43500 1657.0
3.44500 1646.0
3.45500 1581.0
3.46500 1484.0
3.47500 1478.0
3.48500 1618.0
3.49500 1475.0
3.50500 1495.0
3.51500 1412.0
3.52500 1536.0
3.53500 1272.0
3.54500 1208.0
3.55500 1276.0
3.56500 1252.0
3.57500 1145.0
3.58500 1126.0
3.59500 1099.0
3.60500 1074.0
3.61500 1139.0
3.62500 1101.0
3.63500 1165.0
3.64500 1058.0
3.65500 1086.0
3.66500 978.0
3.67500 1051.0
3.68500 1071.0
3.69500 1137.0
3.70500 1262.0
3.71500 1501.0
3.72500 2077.0
3.73500 3100.0
3.74500 4834.0
3.75500 6295.0
3.76500 6972.0
3.77500 6429.0
3.78500 5643.0
3.79500 4801.0
3.80500 4410.0
3.81500 3940.0
3.82500 3527.0
3.83500 3259.0
3.84500 3148.0
3.85500 2895.0
3.86500 2710.0
3.87500 2584.0
3.88500 2460.0
3.89500 2328.0
3.90500 2190.0
3.91500 2238.0
3.92500 2120.0
3.93500 1971.0
3.94500 1870.0
3.95500 1738.0
3.96500 1716.0
3.97500 1591.0
3.98500 1532.0
3.99500 1458.0
4.00500 1426.0
4.01500 1391.0
4.02500 1294.0
4.03500 1257.0
4.04500 1098.0
4.05500 1066.0
4.06500 1025.0
4.07500 984.0
4.08500 1003.0
4.09500 984.0
4.10500 914.0
4.11500 866.0
4.12500 907.0
4.13500 913.0
4.14500 886.0
4.15500 812.0
4.16500 807.0
4.17500 746.0
4.18500 695.0
4.19500 678.0
4.20500 689.0
4.21500 634.0
4.22500 626.0
4.23500 617.0
4.24500 620.0
4.25500 629.0
4.26500 605.0
4.27500 528.0
4.28500 556.0
4.29500 512.0
4.30500 507.0
4.31500 471.0
4.32500 499.0
4.33500 476.0
4.34500 419.0
4.35500 430.0
4.36500 471.0
4.37500 445.0
4.38500 430.0
4.39500 492.0
4.40500 481.0
4.41500 429.0
4.42500 377.0
4.43500 398.0
4.44500 350.0
4.45500 345.0
4.46500 358.0
4.47500 324.0
4.48500 302.0
4.49500 323.0
4.50500 323.0
4.51500 309.0
4.52500 289.0
4.53500 320.0
4.54500 268.0
4.55500 291.0
4.56500 302.0
4.57500 265.0
4.58500 271.0
4.59500 254.0
4.60500 287.0
4.61500 321.0
4.62500 263.0
4.63500 305.0
4.64500 333.0
4.65500 284.0
4.66500 282.0
4.67500 296.0
4.68500 272.0
4.69500 237.0
4.70500 277.0
4.71500 295.0
4.72500 323.0
4.73500 267.0
4.74500 265.0
4.75500 270.0
4.76500 267.0
4.77500 303.0
4.78500 310.0
4.79500 272.0
4.80500 279.0
4.81500 257.0
4.82500 231.0
4.83500 252.0
4.84500 229.0
4.85500 255.0
4.86500 224.0
4.87500 225.0
4.88500 273.0
4.89500 309.0
4.90500 249.0
4.91500 275.0
4.92500 233.0
4.93500 267.0
4.94500 245.0
4.95500 258.0
4.96500 207.0
4.97500 246.0
4.98500 210.0
4.99500 216.0
5.00500 251.0
5.01500 224.0
5.02500 217.0
5.03500 217.0
5.04500 189.0
5.05500 194.0
5.06500 210.0
5.07500 269.0
5.08500 267.0
5.09500 237.0
5.10500 255.0
5.11500 296.0
5.12500 215.0
5.13500 231.0
5.14500 217.0
5.15500 245.0
5.16500 270.0
5.17500 352.0
5.18500 323.0
5.19500 281.0
5.20500 238.0
5.21500 213.0
5.22500 245.0
5.23500 235.0
5.24500 192.0
5.25500 228.0
5.26500 220.0
5.27500 250.0
5.28500 226.0
5.29500 252.0
5.30500 227.0
5.31500 203.0
5.32500 241.0
5.33500 198.0
5.34500 213.0
5.35500 237.0
5.36500 280.0
5.37500 239.0
5.38500 251.0
5.39500 218.0
5.40500 211.0
5.41500 195.0
5.42500 186.0
5.43500 200.0
5.44500 200.0
5.45500 221.0
5.46500 192.0
5.47500 183.0
5.48500 184.0
5.49500 168.0
5.50500 226.0
5.51500 265.0
5.52500 213.0
5.53500 326.0
5.54500 340.0
5.55500 429.0
5.56500 733.0
5.57500 1015.0
5.58500 1149.0
5.59500 1027.0
5.60500 925.0
5.61500 668.0
5.62500 535.0
5.63500 439.0
5.64500 420.0
5.65500 362.0
5.66500 332.0
5.67500 323.0
5.68500 274.0
5.69500 262.0
5.70500 270.0
5.71500 222.0
5.72500 215.0
5.73500 270.0
5.74500 235.0
5.75500 177.0
5.76500 223.0
5.77500 211.0
5.78500 216.0
5.79500 173.0
5.80500 206.0
5.81500 202.0
5.82500 148.0
5.83500 171.0
5.84500 183.0
5.85500 167.0
5.86500 193.0
5.87500 191.0
5.88500 144.0
5.89500 149.0
5.90500 159.0
5.91500 158.0
5.92500 165.0
5.93500 150.0
5.94500 142.0
5.95500 156.0
5.96500 130.0
5.97500 194.0
5.98500 170.0
5.99500 162.0
6.00500 162.0
6.01500 136.0
6.02500 154.0
6.03500 130.0
6.04500 127.0
6.05500 144.0
6.06500 130.0
6.07500 148.0
6.08500 141.0
6.09500 144.0
6.10500 139.0
6.11500 171.0
6.12500 169.0
6.13500 179.0
6.14500 148.0
6.15500 191.0
6.16500 150.0
6.17500 152.0
6.18500 135.0
6.19500 158.0
6.20500 149.0
6.21500 146.0
6.22500 189.0
6.23500 176.0
6.24500 181.0
6.25500 132.0
6.26500 132.0
6.27500 184.0
6.28500 146.0
6.29500 196.0
6.30500 215.0
6.31500 178.0
6.32500 156.0
6.33500 143.0
6.34500 126.0
6.35500 172.0
6.36500 120.0
6.37500 131.0
6.38500 122.0
6.39500 132.0
6.40500 134.0
6.41500 148.0
6.42500 117.0
6.43500 158.0
6.44500 149.0
6.45500 146.0
6.46500 162.0
6.47500 141.0
6.48500 175.0
6.49500 174.0
6.50500 161.0
6.51500 105.0
6.52500 115.0
6.53500 126.0
6.54500 159.0
6.55500 116.0
6.56500 151.0
6.57500 133.0
6.58500 121.0
6.59500 145.0
6.60500 165.0
6.61500 142.0
6.62500 132.0
6.63500 127.0
6.64500 112.0
6.65500 134.0
6.66500 108.0
6.67500 106.0
6.68500 123.0
6.69500 156.0
6.70500 149.0
6.71500 120.0
6.72500 149.0
6.73500 131.0
6.74500 135.0
6.75500 126.0
6.76500 138.0
6.77500 119.0
6.78500 136.0
6.79500 110.0
6.80500 120.0
6.81500 142.0
6.82500 133.0
6.83500 125.0
6.84500 107.0
6.85500 132.0
6.86500 103.0
6.87500 137.0
6.88500 133.0
6.89500 112.0
6.90500 108.0
6.91500 107.0
6.92500 119.0
6.93500 110.0
6.94500 130.0
6.95500 100.0
6.96500 93.0
6.97500 104.0
6.98500 95.0
6.99500 98.0
7.00500 101.0
7.01500 115.0
7.02500 100.0
7.03500 110.0
7.04500 110.0
7.05500 126.0
7.06500 75.0
7.07500 110.0
7.08500 109.0
7.09500 115.0
7.10500 106.0
7.11500 109.0
7.12500 125.0
7.13500 114.0
7.14500 132.0
7.15500 93.0
7.16500 110.0
7.17500 126.0
7.18500 104.0
7.19500 107.0
7.20500 96.0
7.21500 106.0
7.22500 97.0
7.23500 115.0
7.24500 117.0
7.25500 110.0
7.26500 129.0
7.27500 104.0
7.28500 103.0
7.29500 75.0
7.30500 98.0
7.31500 116.0
7.32500 86.0
7.33500 94.0
7.34500 92.0
7.35500 83.0
7.36500 119.0
7.37500 100.0
7.38500 136.0
7.39500 137.0
7.40500 96.0
7.41500 115.0
7.42500 106.0
7.43500 127.0
7.44500 102.0
7.45500 110.0
7.46500 126.0
7.47500 104.0
7.48500 111.0
7.49500 89.0
7.50500 129.0
7.51500 114.0
7.52500 105.0
7.53500 124.0
7.54500 142.0
7.55500 72.0
7.56500 111.0
7.57500 102.0
7.58500 116.0
7.59500 130.0
7.60500 97.0
7.61500 135.0
7.62500 148.0
7.63500 106.0
7.64500 117.0
7.65500 102.0
7.66500 128.0
7.67500 104.0
7.68500 95.0
7.69500 85.0
7.70500 94.0
7.71500 60.0
7.72500 57.0
7.73500 58.0
7.74500 79.0
7.75500 75.0
7.76500 66.0
7.77500 80.0
7.78500 73.0
7.79500 96.0
7.80500 90.0
7.81500 82.0
7.82500 59.0
7.83500 79.0
7.84500 80.0
7.85500 104.0
7.86500 92.0
7.87500 112.0
7.88500 97.0
7.89500 141.0
7.90500 153.0
7.91500 119.0
7.92500 123.0
7.93500 126.0
7.94500 120.0
7.95500 118.0
7.96500 97.0
7.97500 87.0
7.98500 92.0
7.99500 85.0
8.00500 92.0
8.01500 89.0
8.02500 100.0
8.03500 86.0
8.04500 102.0
8.05500 100.0
8.06500 86.0
8.07500 112.0
8.08500 134.0
8.09500 125.0
8.10500 120.0
8.11500 107.0
8.12500 108.0
8.13500 110.0
8.14500 114.0
8.15500 94.0
8.16500 120.0
8.17500 136.0
8.18500 61.0
8.19500 71.0
8.20500 81.0
8.21500 68.0
8.22500 62.0
