0.00940 13.0
0.01440 26.0
0.01940 33.0
0.02440 29.0
0.02940 37.0
0.03440 29.0
0.03940 36.0
0.04440 36.0
0.04940 35.0
0.05440 23.0
0.05940 28.0
0.06440 38.0
0.06940 51.0
0.07440 41.0
0.07940 47.0
0.08440 36.0
0.08940 56.0
0.09440 46.0
0.09940 32.0
0.10440 46.0
0.10940 34.0
0.11440 37.0
0.11940 44.0
0.12440 38.0
0.12940 53.0
0.13440 51.0
0.13940 40.0
0.14440 51.0
0.14940 47.0
0.15440 56.0
0.15940 61.0
0.16440 45.0
0.16940 55.0
0.17440 71.0
0.17940 39.0
0.18440 55.0
0.18940 52.0
0.19440 51.0
0.19940 49.0
0.20440 51.0
0.20940 59.0
0.21440 51.0
0.21940 73.0
0.22440 60.0
0.22940 68.0
0.23440 50.0
0.23940 66.0
0.24440 66.0
0.24940 66.0
0.25440 74.0
0.25940 87.0
0.26440 93.0
0.26940 72.0
0.27440 85.0
0.27940 89.0
0.28440 79.0
0.28940 88.0
0.29440 99.0
0.29940 94.0
0.30440 76.0
0.30940 112.0
0.31440 123.0
0.31940 87.0
0.32440 118.0
0.32940 118.0
0.33440 119.0
0.33940 137.0
0.34440 137.0
0.34940 132.0
0.35440 147.0
0.35940 131.0
0.36440 149.0
0.36940 115.0
0.37440 147.0
0.37940 154.0
0.38440 162.0
0.38940 148.0
0.39440 154.0
0.39940 168.0
0.40440 180.0
0.40940 190.0
0.41440 196.0
0.41940 172.0
0.42440 197.0
0.42940 165.0
0.43440 189.0
0.43940 218.0
0.44440 208.0
0.44940 256.0
0.45440 270.0
0.45940 258.0
0.46440 283.0
0.46940 285.0
0.47440 301.0
0.47940 340.0
0.48440 352.0
0.48940 368.0
0.49440 383.0
0.49940 367.0
0.50440 446.0
0.50940 466.0
0.51440 474.0
0.51940 517.0
0.52440 471.0
0.52940 542.0
0.53440 582.0
0.53940 631.0
0.54440 663.0
0.54940 743.0
0.55440 723.0
0.55940 758.0
0.56440 825.0
0.56940 897.0
0.57440 931.0
0.57940 974.0
0.58440 1050.0
0.58940 1101.0
0.59440 1118.0
0.59940 1241.0
0.60440 1271.0
0.60940 1358.0
0.61440 1382.0
0.61940 1537.0
0.62440 1484.0
0.62940 1497.0
0.63440 1541.0
0.63940 1630.0
0.64440 1759.0
0.64940 1785.0
0.65440 1912.0
0.65940 1996.0
0.66440 1971.0
0.66940 2027.0
0.67440 2043.0
0.67940 2265.0
0.68440 2214.0
0.68940 2230.0
0.69440 2199.0
0.69940 2350.0
0.70440 2484.0
0.70940 2522.0
0.71440 2559.0
0.71940 2775.0
0.72440 2750.0
0.72940 2834.0
0.73440 2966.0
0.73940 2997.0
0.74440 3067.0
0.74940 3156.0
0.75440 3276.0
0.75940 3282.0
0.76440 3379.0
0.76940 3470.0
0.77440 3523.0
0.77940 3647.0
0.78440 3802.0
0.78940 3863.0
0.79440 3908.0
0.79940 4210.0
0.80440 4263.0
0.80940 4319.0
0.81440 4428.0
0.81940 4707.0
0.82440 4719.0
0.82940 4937.0
0.83440 5006.0
0.83940 5087.0
0.84440 5491.0
0.84940 5674.0
0.85440 6166.0
0.85940 6246.0
0.86440 6563.0
0.86940 6929.0
0.87440 7432.0
0.87940 7828.0
0.88440 8466.0
0.88940 9350.0
0.89440 10339.0
0.89940 12598.0
0.90440 16731.0
0.90940 41333.0
0.91440 216218.0
0.91940 1045495.0
0.92440 3000595.0
0.92940 5433355.0
0.93440 7875166.0
0.93940 9534913.0
0.94440 9574381.0
0.94940 7771744.0
0.95440 4858892.0
0.95940 2030702.0
0.96440 488374.0
0.96940 80757.0
0.97440 20672.0
0.97940 13245.0
0.98440 10769.0
0.98940 9457.0
0.99440 8600.0
0.99940 7563.0
1.00440 6875.0
1.00940 6603.0
1.01440 6126.0
1.01940 5871.0
1.02440 5542.0
1.02940 5193.0
1.03440 4868.0
1.03940 4718.0
1.04440 4428.0
1.04940 4259.0
1.05440 4169.0
1.05940 4031.0
1.06440 3881.0
1.06940 3781.0
1.07440 3537.0
1.07940 3512.0
1.08440 3414.0
1.08940 3333.0
1.09440 3178.0
1.09940 3133.0
1.10440 3047.0
1.10940 2980.0
1.11440 2773.0
1.11940 2682.0
1.12440 2665.0
1.12940 2641.0
1.13440 2537.0
1.13940 2449.0
1.14440 2313.0
1.14940 2303.0
1.15440 2204.0
1.15940 2169.0
1.16440 2105.0
1.16940 2035.0
1.17440 1966.0
1.17940 1879.0
1.18440 1927.0
1.18940 1810.0
1.19440 1773.0
1.19940 1683.0
1.20440 1587.0
1.20940 1581.0
1.21440 1530.0
1.21940 1473.0
1.22440 1451.0
1.22940 1351.0
1.23440 1293.0
1.23940 1152.0
1.24440 1193.0
1.24940 1109.0
1.25440 1058.0
1.25940 994.0
1.26440 1044.0
1.26940 956.0
1.27440 919.0
1.27940 870.0
1.28440 841.0
1.28940 825.0
1.29440 748.0
1.29940 695.0
1.30440 690.0
1.30940 617.0
1.31440 598.0
1.31940 510.0
1.32440 557.0
1.32940 523.0
1.33440 491.0
1.33940 448.0
1.34440 409.0
1.34940 419.0
1.35440 361.0
1.35940 343.0
1.36440 336.0
1.36940 286.0
1.37440 282.0
1.37940 274.0
1.38440 272.0
1.38940 242.0
1.39440 253.0
1.39940 235.0
1.40440 213.0
1.40940 214.0
1.41440 207.0
1.41940 159.0
1.42440 140.0
1.42940 152.0
1.43440 161.0
1.43940 135.0
1.44440 130.0
1.44940 120.0
1.45440 141.0
1.45940 113.0
1.46440 104.0
1.46940 100.0
1.47440 106.0
1.47940 94.0
1.48440 100.0
1.48940 87.0
1.49440 86.0
1.49940 89.0
1.50440 79.0
1.50940 83.0
1.51440 72.0
1.51940 82.0
1.52440 79.0
1.52940 85.0
1.53440 80.0
1.53940 78.0
1.54440 65.0
1.54940 82.0
1.55440 70.0
1.55940 59.0
1.56440 65.0
1.56940 81.0
1.57440 56.0
1.57940 75.0
1.58440 50.0
1.58940 63.0
1.59440 54.0
1.59940 41.0
1.60440 42.0
1.60940 33.0
1.61440 46.0
1.61940 55.0
1.62440 56.0
1.62940 47.0
1.63440 49.0
1.63940 45.0
1.64440 48.0
1.64940 48.0
1.65440 48.0
1.65940 42.0
1.66440 44.0
1.66940 46.0
1.67440 42.0
1.67940 44.0
1.68440 44.0
1.68940 41.0
1.69440 36.0
1.69940 39.0
1.70440 40.0
1.70940 39.0
1.71440 41.0
1.71940 40.0
1.72440 41.0
1.72940 30.0
1.73440 24.0
1.73940 36.0
1.74440 43.0
1.74940 37.0
1.75440 42.0
1.75940 47.0
1.76440 43.0
1.76940 76.0
1.77440 67.0
1.77940 79.0
1.78440 65.0
1.78940 56.0
1.79440 47.0
1.79940 58.0
1.80440 44.0
1.80940 37.0
1.81440 41.0
1.81940 49.0
1.82440 31.0
1.82940 43.0
1.83440 49.0
1.83940 45.0
1.84440 52.0
1.84940 53.0
1.85440 60.0
1.85940 38.0
1.86440 43.0
1.86940 43.0
