0.00500 30555128.0
0.01500 33868752.0
0.02500 29521608.0
0.03500 22807030.0
0.04500 15231712.0
0.05500 8492889.0
0.06500 4505664.0
0.07500 3452587.0
0.08500 3637962.0
0.09500 3942617.0
0.10500 4428419.0
0.11500 4819610.0
0.12500 5231017.0
0.13500 5777173.0
0.14500 6091062.0
0.15500 6579925.0
0.16500 6940058.0
0.17500 7304015.0
0.18500 7911512.0
0.19500 8166842.0
0.20500 8620188.0
0.21500 9025285.0
0.22500 9300887.0
0.23500 9976987.0
0.24500 10185969.0
0.25500 10528508.0
0.26500 10942392.0
0.27500 11204363.0
0.28500 11952706.0
0.29500 12213421.0
0.30500 12445092.0
0.31500 12979714.0
0.32500 13092267.0
0.33500 13791091.0
0.34500 14162914.0
0.35500 14337357.0
0.36500 14813312.0
0.37500 14857868.0
0.38500 15517759.0
0.39500 15896088.0
0.40500 15865757.0
0.41500 16456707.0
0.42500 16634768.0
0.43500 17125646.0
0.44500 17589676.0
0.45500 17450824.0
0.46500 17981702.0
0.47500 18158340.0
0.48500 18568110.0
0.49500 19174620.0
0.50500 19124004.0
0.51500 19678166.0
0.52500 19909544.0
0.53500 19949262.0
0.54500 20540590.0
0.55500 20490060.0
0.56500 21002776.0
0.57500 21295008.0
0.58500 21208792.0
0.59500 21704576.0
0.60500 21603730.0
0.61500 21815896.0
0.62500 22157144.0
0.63500 21825828.0
0.64500 22258462.0
0.65500 22109150.0
0.66500 21881206.0
0.67500 21734330.0
0.68500 20674826.0
0.69500 19954794.0
0.70500 18174012.0
0.71500 15892202.0
0.72500 13771056.0
0.73500 11388446.0
0.74500 9810355.0
0.75500 8541486.0
0.76500 7385298.0
0.77500 6659654.0
0.78500 5869539.0
0.79500 5313508.0
0.80500 4893484.0
0.81500 4451415.0
0.82500 4147732.0
0.83500 3753782.0
0.84500 3466230.0
0.85500 3245875.0
0.86500 2989647.0
0.87500 2826247.0
0.88500 2641143.0
0.89500 2459040.0
0.90500 2344989.0
0.91500 2190262.0
0.92500 2084996.0
0.93500 1969572.0
0.94500 1862252.0
0.95500 1803564.0
0.96500 1707277.0
0.97500 1632161.0
0.98500 1536946.0
0.99500 1450915.0
1.00500 1407517.0
1.01500 1332139.0
1.02500 1271831.0
1.03500 1231925.0
1.04500 1157871.0
1.05500 1119572.0
1.06500 1077862.0
1.07500 1032287.0
1.08500 984281.0
1.09500 951975.0
1.10500 941613.0
1.11500 908592.0
1.12500 860447.0
1.13500 838938.0
1.14500 810166.0
1.15500 773421.0
1.16500 743893.0
1.17500 720919.0
1.18500 693663.0
1.19500 659284.0
1.20500 639088.0
1.21500 637513.0
1.22500 606790.0
1.23500 582118.0
1.24500 564191.0
1.25500 548677.0
1.26500 532401.0
1.27500 498174.0
1.28500 488131.0
1.29500 480351.0
1.30500 459946.0
1.31500 442252.0
1.32500 435014.0
1.33500 432773.0
1.34500 417276.0
1.35500 392361.0
1.36500 387568.0
1.37500 382614.0
1.38500 367093.0
1.39500 346306.0
1.40500 341319.0
1.41500 343302.0
1.42500 328910.0
1.43500 309611.0
1.44500 306806.0
1.45500 306116.0
1.46500 294957.0
1.47500 280025.0
1.48500 273009.0
1.49500 274400.0
1.50500 262623.0
1.51500 248433.0
1.52500 245545.0
1.53500 249178.0
1.54500 241188.0
1.55500 224004.0
1.56500 218950.0
1.57500 221781.0
1.58500 214045.0
1.59500 199359.0
1.60500 193209.0
1.61500 196216.0
1.62500 194439.0
1.63500 183234.0
1.64500 177593.0
1.65500 182712.0
1.66500 183469.0
1.67500 171217.0
1.68500 161484.0
1.69500 164256.0
1.70500 168530.0
1.71500 157645.0
1.72500 148895.0
1.73500 149248.0
1.74500 153887.0
1.75500 147751.0
1.76500 136101.0
1.77500 134187.0
1.78500 139511.0
1.79500 136680.0
1.80500 125345.0
1.81500 120113.0
1.82500 125624.0
1.83500 127290.0
1.84500 118350.0
1.85500 113283.0
1.86500 118113.0
1.87500 121151.0
1.88500 113924.0
1.89500 106870.0
1.90500 108758.0
1.91500 113804.0
1.92500 109370.0
1.93500 101587.0
1.94500 101480.0
1.95500 108552.0
1.96500 109362.0
1.97500 101833.0
1.98500 99183.0
1.99500 106779.0
2.00500 112115.0
2.01500 103880.0
2.02500 94878.0
2.03500 96757.0
2.04500 103455.0
2.05500 100464.0
2.06500 91662.0
2.07500 91958.0
2.08500 99606.0
2.09500 100432.0
2.10500 92005.0
2.11500 86829.0
2.12500 93238.0
2.13500 97622.0
2.14500 92564.0
2.15500 85978.0
2.16500 90425.0
2.17500 100073.0
2.18500 100118.0
2.19500 91233.0
2.20500 93002.0
2.21500 105863.0
2.22500 113002.0
2.23500 109402.0
2.24500 110642.0
2.25500 127132.0
2.26500 145095.0
2.27500 147134.0
2.28500 145132.0
2.29500 167124.0
2.30500 206690.0
2.31500 237849.0
2.32500 256694.0
2.33500 312825.0
2.34500 442137.0
2.35500 607137.0
2.36500 748978.0
2.37500 924817.0
2.38500 1264294.0
2.39500 1799424.0
2.40500 2387606.0
2.41500 2747494.0
2.42500 2648841.0
2.43500 2122871.0
2.44500 1449126.0
2.45500 856074.0
2.46500 501933.0
2.47500 332331.0
2.48500 243832.0
2.49500 177453.0
2.50500 120878.0
2.51500 85692.0
2.52500 67287.0
2.53500 55038.0
2.54500 45185.0
2.55500 36932.0
2.56500 31676.0
2.57500 27219.0
2.58500 23115.0
2.59500 19585.0
2.60500 16907.0
2.61500 14652.0
2.62500 12695.0
2.63500 11905.0
2.64500 10598.0
2.65500 9208.0
2.66500 7341.0
2.67500 6671.0
2.68500 6756.0
2.69500 6277.0
2.70500 5298.0
2.71500 4849.0
2.72500 4949.0
2.73500 5113.0
2.74500 4498.0
2.75500 4161.0
2.76500 4093.0
2.77500 4363.0
2.78500 4474.0
2.79500 4040.0
2.80500 3669.0
2.81500 3805.0
2.82500 4225.0
2.83500 3850.0
2.84500 3233.0
2.85500 3065.0
2.86500 3312.0
2.87500 3282.0
2.88500 2809.0
2.89500 2750.0
2.90500 2994.0
2.91500 3379.0
2.92500 2999.0
2.93500 2751.0
2.94500 2592.0
2.95500 2973.0
2.96500 2909.0
2.97500 2456.0
2.98500 2194.0
2.99500 2372.0
3.00500 2435.0
3.01500 2503.0
3.02500 2275.0
3.03500 2049.0
3.04500 2196.0
3.05500 2286.0
3.06500 1800.0
3.07500 1775.0
3.08500 1834.0
3.09500 1953.0
3.10500 1840.0
3.11500 1559.0
3.12500 1575.0
3.13500 1666.0
3.14500 1807.0
3.15500 1587.0
3.16500 1329.0
3.17500 1362.0
3.18500 1583.0
3.19500 1520.0
3.20500 1329.0
3.21500 1200.0
3.22500 1502.0
3.23500 1482.0
3.24500 1355.0
3.25500 1197.0
3.26500 1227.0
3.27500 1388.0
3.28500 1395.0
3.29500 1099.0
3.30500 1126.0
3.31500 1161.0
3.32500 1330.0
3.33500 1114.0
3.34500 1149.0
3.35500 1076.0
3.36500 1407.0
3.37500 1479.0
3.38500 1176.0
3.39500 1242.0
3.40500 1010.0
3.41500 1150.0
3.42500 980.0
3.43500 934.0
3.44500 936.0
3.45500 936.0
3.46500 1007.0
3.47500 927.0
3.48500 953.0
3.49500 952.0
3.50500 995.0
3.51500 824.0
3.52500 762.0
3.53500 769.0
3.54500 806.0
3.55500 821.0
3.56500 730.0
3.57500 747.0
3.58500 900.0
3.59500 899.0
3.60500 833.0
3.61500 813.0
3.62500 895.0
3.63500 852.0
3.64500 875.0
3.65500 938.0
3.66500 790.0
3.67500 818.0
3.68500 636.0
3.69500 694.0
3.70500 717.0
3.71500 662.0
3.72500 667.0
3.73500 608.0
3.74500 529.0
3.75500 455.0
3.76500 428.0
3.77500 487.0
3.78500 468.0
3.79500 421.0
3.80500 411.0
3.81500 486.0
3.82500 465.0
3.83500 576.0
3.84500 692.0
3.85500 593.0
3.86500 490.0
3.87500 386.0
3.88500 364.0
3.89500 334.0
3.90500 447.0
3.91500 441.0
3.92500 406.0
3.93500 431.0
3.94500 390.0
3.95500 442.0
3.96500 517.0
3.97500 495.0
3.98500 454.0
3.99500 424.0
4.00500 388.0
4.01500 300.0
4.02500 323.0
4.03500 287.0
4.04500 303.0
4.05500 338.0
4.06500 343.0
4.07500 285.0
4.08500 348.0
4.09500 361.0
4.10500 475.0
4.11500 386.0
4.12500 443.0
4.13500 439.0
4.14500 401.0
4.15500 362.0
4.16500 402.0
4.17500 409.0
4.18500 381.0
4.19500 376.0
4.20500 323.0
4.21500 345.0
4.22500 403.0
4.23500 378.0
4.24500 313.0
4.25500 305.0
4.26500 288.0
4.27500 332.0
4.28500 268.0
4.29500 284.0
4.30500 293.0
4.31500 326.0
4.32500 316.0
4.33500 296.0
4.34500 265.0
4.35500 294.0
4.36500 336.0
4.37500 343.0
4.38500 329.0
4.39500 319.0
4.40500 364.0
4.41500 397.0
4.42500 368.0
4.43500 400.0
4.44500 481.0
4.45500 588.0
4.46500 463.0
4.47500 587.0
4.48500 580.0
4.49500 585.0
4.50500 657.0
4.51500 600.0
4.52500 704.0
4.53500 858.0
4.54500 1109.0
4.55500 1228.0
4.56500 1349.0
4.57500 1630.0
4.58500 2153.0
4.59500 2872.0
4.60500 3639.0
4.61500 4269.0
4.62500 4731.0
4.63500 5723.0
4.64500 7301.0
4.65500 8862.0
4.66500 10380.0
4.67500 10110.0
4.68500 9127.0
4.69500 7049.0
4.70500 4976.0
4.71500 3880.0
4.72500 3079.0
4.73500 2822.0
4.74500 2454.0
4.75500 2011.0
4.76500 1623.0
4.77500 1341.0
4.78500 1206.0
4.79500 1214.0
4.80500 1022.0
4.81500 920.0
4.82500 840.0
4.83500 789.0
4.84500 744.0
4.85500 717.0
4.86500 682.0
4.87500 621.0
4.88500 649.0
4.89500 723.0
4.90500 565.0
4.91500 573.0
4.92500 529.0
4.93500 516.0
4.94500 474.0
4.95500 469.0
4.96500 490.0
4.97500 513.0
4.98500 467.0
4.99500 468.0
5.00500 525.0
5.01500 592.0
5.02500 554.0
5.03500 508.0
5.04500 480.0
5.05500 511.0
5.06500 483.0
5.07500 496.0
5.08500 415.0
5.09500 443.0
5.10500 443.0
5.11500 467.0
5.12500 443.0
5.13500 397.0
5.14500 394.0
5.15500 416.0
5.16500 406.0
5.17500 339.0
5.18500 359.0
5.19500 369.0
5.20500 465.0
5.21500 418.0
5.22500 361.0
5.23500 319.0
5.24500 297.0
5.25500 311.0
5.26500 312.0
5.27500 283.0
5.28500 280.0
5.29500 268.0
5.30500 336.0
5.31500 317.0
5.32500 262.0
5.33500 335.0
5.34500 317.0
5.35500 406.0
5.36500 310.0
5.37500 306.0
5.38500 314.0
5.39500 382.0
5.40500 349.0
5.41500 367.0
5.42500 400.0
5.43500 403.0
5.44500 305.0
5.45500 329.0
5.46500 356.0
5.47500 352.0
5.48500 385.0
5.49500 340.0
5.50500 321.0
5.51500 322.0
5.52500 358.0
5.53500 352.0
5.54500 379.0
5.55500 462.0
5.56500 461.0
5.57500 441.0
5.58500 449.0
5.59500 378.0
5.60500 333.0
5.61500 392.0
5.62500 432.0
5.63500 386.0
5.64500 400.0
5.65500 358.0
5.66500 375.0
5.67500 390.0
5.68500 366.0
5.69500 451.0
5.70500 474.0
5.71500 473.0
5.72500 483.0
5.73500 488.0
5.74500 351.0
5.75500 366.0
5.76500 365.0
5.77500 352.0
5.78500 283.0
5.79500 301.0
5.80500 308.0
5.81500 420.0
5.82500 515.0
5.83500 476.0
5.84500 615.0
5.85500 586.0
5.86500 474.0
5.87500 486.0
5.88500 333.0
5.89500 348.0
5.90500 368.0
5.91500 394.0
5.92500 317.0
5.93500 366.0
5.94500 387.0
5.95500 401.0
5.96500 393.0
5.97500 380.0
5.98500 341.0
5.99500 369.0
6.00500 421.0
6.01500 438.0
6.02500 514.0
6.03500 532.0
6.04500 421.0
6.05500 518.0
6.06500 387.0
6.07500 269.0
6.08500 252.0
6.09500 297.0
6.10500 266.0
6.11500 344.0
6.12500 307.0
6.13500 292.0
6.14500 274.0
6.15500 251.0
6.16500 279.0
6.17500 361.0
6.18500 304.0
6.19500 253.0
6.20500 240.0
6.21500 259.0
6.22500 291.0
6.23500 308.0
6.24500 283.0
6.25500 289.0
6.26500 310.0
6.27500 232.0
6.28500 281.0
6.29500 319.0
6.30500 396.0
6.31500 384.0
6.32500 379.0
6.33500 383.0
6.34500 461.0
6.35500 465.0
6.36500 329.0
6.37500 370.0
6.38500 319.0
6.39500 255.0
6.40500 280.0
6.41500 384.0
6.42500 357.0
6.43500 384.0
6.44500 456.0
6.45500 445.0
6.46500 340.0
6.47500 345.0
6.48500 248.0
6.49500 304.0
6.50500 282.0
6.51500 274.0
6.52500 301.0
6.53500 320.0
6.54500 338.0
6.55500 371.0
6.56500 372.0
6.57500 329.0
6.58500 281.0
6.59500 295.0
6.60500 314.0
6.61500 256.0
6.62500 367.0
6.63500 281.0
6.64500 344.0
6.65500 523.0
6.66500 482.0
6.67500 429.0
6.68500 481.0
6.69500 454.0
6.70500 406.0
6.71500 319.0
6.72500 440.0
6.73500 420.0
6.74500 464.0
6.75500 428.0
6.76500 408.0
6.77500 358.0
6.78500 403.0
6.79500 398.0
6.80500 347.0
6.81500 305.0
6.82500 355.0
6.83500 390.0
6.84500 445.0
6.85500 485.0
6.86500 421.0
6.87500 439.0
6.88500 458.0
6.89500 438.0
6.90500 421.0
6.91500 405.0
6.92500 410.0
6.93500 340.0
6.94500 295.0
6.95500 258.0
6.96500 248.0
6.97500 319.0
6.98500 210.0
6.99500 257.0
7.00500 277.0
7.01500 293.0
7.02500 267.0
7.03500 270.0
7.04500 362.0
7.05500 369.0
7.06500 378.0
7.07500 361.0
7.08500 352.0
7.09500 312.0
7.10500 396.0
7.11500 333.0
7.12500 205.0
7.13500 211.0
7.14500 227.0
7.15500 306.0
7.16500 321.0
7.17500 372.0
7.18500 307.0
7.19500 310.0
7.20500 327.0
7.21500 269.0
7.22500 295.0
7.23500 332.0
7.24500 290.0
7.25500 257.0
7.26500 248.0
7.27500 252.0
7.28500 313.0
7.29500 284.0
7.30500 298.0
7.31500 221.0
7.32500 206.0
7.33500 295.0
7.34500 201.0
7.35500 211.0
7.36500 254.0
7.37500 300.0
7.38500 240.0
7.39500 236.0
7.40500 220.0
7.41500 359.0
7.42500 429.0
7.43500 443.0
7.44500 336.0
7.45500 246.0
7.46500 199.0
7.47500 301.0
7.48500 264.0
7.49500 244.0
7.50500 267.0
7.51500 231.0
7.52500 220.0
7.53500 326.0
7.54500 308.0
7.55500 328.0
7.56500 306.0
7.57500 316.0
7.58500 262.0
7.59500 290.0
7.60500 288.0
7.61500 259.0
7.62500 274.0
7.63500 244.0
7.64500 273.0
7.65500 300.0
7.66500 304.0
7.67500 408.0
7.68500 315.0
7.69500 359.0
7.70500 321.0
7.71500 340.0
7.72500 435.0
7.73500 392.0
