1.47120 168.0
1.47620 156.0
1.48120 164.0
1.48620 153.0
1.49120 140.0
1.49620 163.0
1.50120 171.0
1.50620 165.0
1.51120 185.0
1.51620 182.0
1.52120 146.0
1.52620 155.0
1.53120 156.0
1.53620 153.0
1.54120 144.0
1.54620 144.0
1.55120 166.0
1.55620 153.0
1.56120 154.0
1.56620 174.0
1.57120 152.0
1.57620 171.0
1.58120 125.0
1.58620 183.0
1.59120 159.0
1.59620 151.0
1.60120 169.0
1.60620 150.0
1.61120 159.0
1.61620 135.0
1.62120 138.0
1.62620 145.0
1.63120 123.0
1.63620 162.0
1.64120 183.0
1.64620 192.0
1.65120 139.0
1.65620 177.0
1.66120 134.0
1.66620 142.0
1.67120 154.0
1.67620 170.0
1.68120 143.0
1.68620 172.0
1.69120 174.0
1.69620 179.0
1.70120 145.0
1.70620 165.0
1.71120 201.0
1.71620 162.0
1.72120 167.0
1.72620 144.0
1.73120 146.0
1.73620 167.0
1.74120 151.0
1.74620 143.0
1.75120 129.0
1.75620 139.0
1.76120 156.0
1.76620 147.0
1.77120 136.0
1.77620 135.0
1.78120 170.0
1.78620 109.0
1.79120 130.0
1.79620 133.0
1.80120 149.0
1.80620 152.0
1.81120 141.0
1.81620 121.0
1.82120 154.0
1.82620 129.0
1.83120 133.0
1.83620 130.0
1.84120 151.0
1.84620 132.0
1.85120 167.0
1.85620 154.0
1.86120 133.0
1.86620 143.0
1.87120 157.0
1.87620 137.0
1.88120 148.0
1.88620 156.0
1.89120 177.0
1.89620 126.0
1.90120 139.0
1.90620 156.0
1.91120 137.0
1.91620 140.0
1.92120 144.0
1.92620 157.0
1.93120 136.0
1.93620 143.0
1.94120 126.0
1.94620 139.0
1.95120 117.0
1.95620 150.0
1.96120 141.0
1.96620 131.0
1.97120 133.0
1.97620 153.0
1.98120 155.0
1.98620 149.0
1.99120 147.0
1.99620 123.0
2.00120 144.0
2.00620 152.0
2.01120 139.0
2.01620 128.0
2.02120 142.0
2.02620 141.0
2.03120 140.0
2.03620 155.0
2.04120 138.0
2.04620 164.0
2.05120 157.0
2.05620 141.0
2.06120 151.0
2.06620 154.0
2.07120 163.0
2.07620 166.0
2.08120 182.0
2.08620 147.0
2.09120 168.0
2.09620 188.0
2.10120 158.0
2.10620 157.0
2.11120 163.0
2.11620 164.0
2.12120 153.0
2.12620 169.0
2.13120 151.0
2.13620 138.0
2.14120 151.0
2.14620 156.0
2.15120 162.0
2.15620 126.0
2.16120 119.0
2.16620 117.0
2.17120 131.0
2.17620 159.0
2.18120 148.0
2.18620 157.0
2.19120 136.0
2.19620 176.0
2.20120 156.0
2.20620 149.0
2.21120 164.0
2.21620 152.0
2.22120 156.0
2.22620 139.0
2.23120 165.0
2.23620 160.0
2.24120 177.0
2.24620 157.0
2.25120 156.0
2.25620 166.0
2.26120 135.0
2.26620 155.0
2.27120 128.0
2.27620 132.0
2.28120 143.0
2.28620 145.0
2.29120 136.0
2.29620 141.0
2.30120 159.0
2.30620 129.0
2.31120 128.0
2.31620 126.0
2.32120 159.0
2.32620 164.0
2.33120 153.0
2.33620 145.0
2.34120 138.0
2.34620 132.0
2.35120 142.0
2.35620 143.0
2.36120 152.0
2.36620 183.0
2.37120 159.0
2.37620 159.0
2.38120 139.0
2.38620 141.0
2.39120 126.0
2.39620 166.0
2.40120 164.0
2.40620 139.0
2.41120 125.0
2.41620 147.0
2.42120 152.0
2.42620 149.0
2.43120 155.0
2.43620 166.0
2.44120 326.0
2.44620 840.0
2.45120 2301.0
2.45620 4542.0
2.46120 6652.0
2.46620 8146.0
2.47120 8463.0
2.47620 7009.0
2.48120 4526.0
2.48620 2512.0
2.49120 1169.0
2.49620 566.0
2.50120 259.0
2.50620 204.0
2.51120 146.0
2.51620 133.0
2.52120 142.0
2.52620 145.0
2.53120 142.0
2.53620 144.0
2.54120 120.0
2.54620 123.0
2.55120 127.0
2.55620 135.0
2.56120 145.0
2.56620 124.0
2.57120 121.0
2.57620 118.0
2.58120 122.0
2.58620 144.0
2.59120 141.0
2.59620 127.0
2.60120 133.0
2.60620 155.0
2.61120 114.0
2.61620 128.0
2.62120 122.0
2.62620 115.0
2.63120 149.0
2.63620 129.0
2.64120 127.0
2.64620 141.0
2.65120 111.0
2.65620 128.0
2.66120 141.0
2.66620 147.0
2.67120 130.0
2.67620 135.0
2.68120 148.0
2.68620 128.0
2.69120 108.0
2.69620 124.0
2.70120 127.0
2.70620 116.0
2.71120 111.0
2.71620 116.0
2.72120 130.0
2.72620 118.0
2.73120 129.0
2.73620 135.0
2.74120 108.0
2.74620 138.0
2.75120 109.0
2.75620 138.0
2.76120 138.0
2.76620 119.0
2.77120 131.0
2.77620 135.0
2.78120 154.0
2.78620 126.0
2.79120 144.0
2.79620 146.0
2.80120 139.0
2.80620 150.0
2.81120 146.0
2.81620 116.0
2.82120 151.0
2.82620 155.0
2.83120 129.0
2.83620 131.0
2.84120 138.0
2.84620 137.0
2.85120 149.0
2.85620 145.0
2.86120 126.0
2.86620 143.0
2.87120 142.0
2.87620 134.0
2.88120 157.0
2.88620 137.0
2.89120 129.0
2.89620 156.0
2.90120 138.0
2.90620 131.0
2.91120 136.0
2.91620 144.0
2.92120 126.0
2.92620 145.0
2.93120 143.0
2.93620 128.0
2.94120 138.0
2.94620 150.0
2.95120 151.0
2.95620 134.0
2.96120 106.0
2.96620 118.0
2.97120 132.0
2.97620 136.0
2.98120 119.0
2.98620 106.0
2.99120 106.0
2.99620 117.0
3.00120 114.0
3.00620 133.0
3.01120 100.0
3.01620 122.0
3.02120 114.0
3.02620 113.0
3.03120 110.0
3.03620 150.0
3.04120 119.0
3.04620 126.0
3.05120 96.0
3.05620 128.0
3.06120 118.0
3.06620 99.0
3.07120 118.0
3.07620 118.0
3.08120 98.0
3.08620 102.0
3.09120 123.0
3.09620 117.0
3.10120 90.0
3.10620 134.0
3.11120 100.0
3.11620 113.0
3.12120 125.0
3.12620 93.0
3.13120 115.0
3.13620 118.0
3.14120 114.0
3.14620 117.0
3.15120 113.0
3.15620 136.0
3.16120 145.0
3.16620 106.0
3.17120 136.0
3.17620 121.0
3.18120 121.0
3.18620 141.0
3.19120 121.0
3.19620 97.0
3.20120 126.0
3.20620 123.0
3.21120 138.0
3.21620 103.0
3.22120 101.0
3.22620 86.0
3.23120 103.0
3.23620 113.0
3.24120 83.0
3.24620 90.0
3.25120 101.0
3.25620 101.0
3.26120 84.0
3.26620 112.0
3.27120 103.0
3.27620 88.0
3.28120 100.0
3.28620 97.0
3.29120 109.0
3.29620 96.0
3.30120 104.0
3.30620 110.0
3.31120 103.0
3.31620 89.0
3.32120 108.0
3.32620 110.0
3.33120 98.0
3.33620 97.0
3.34120 88.0
3.34620 115.0
3.35120 105.0
3.35620 111.0
3.36120 97.0
3.36620 92.0
3.37120 86.0
3.37620 90.0
3.38120 107.0
3.38620 87.0
3.39120 81.0
3.39620 86.0
3.40120 119.0
3.40620 121.0
3.41120 111.0
3.41620 114.0
3.42120 98.0
3.42620 110.0
3.43120 63.0
3.43620 101.0
3.44120 113.0
3.44620 110.0
3.45120 103.0
3.45620 98.0
3.46120 122.0
