0.00500 380055355392.0
0.01500 437632172032.0
0.02500 331796643840.0
0.03500 188695150592.0
0.04500 81198587904.0
0.05500 27874287616.0
0.06500 13109427200.0
0.07500 12862829568.0
0.08500 14582396928.0
0.09500 16199902208.0
0.10500 18199197696.0
0.11500 19747938304.0
0.12500 22296131584.0
0.13500 24947589120.0
0.14500 26856654848.0
0.15500 29506183168.0
0.16500 31508162560.0
0.17500 34385829888.0
0.18500 37789974528.0
0.19500 39825616896.0
0.20500 43013775360.0
0.21500 45337956352.0
0.22500 48400408576.0
0.23500 52534136832.0
0.24500 55039451136.0
0.25500 58790952960.0
0.26500 61903847424.0
0.27500 65014738944.0
0.28500 69782552576.0
0.29500 72120606720.0
0.30500 76007833600.0
0.31500 80015319040.0
0.32500 82948505600.0
0.33500 87768670208.0
0.34500 90610941952.0
0.35500 95212806144.0
0.36500 99943743488.0
0.37500 102393987072.0
0.38500 107389796352.0
0.39500 110733787136.0
0.40500 114561458176.0
0.41500 120150392832.0
0.42500 123061665792.0
0.43500 128137281536.0
0.44500 132294549504.0
0.45500 135551598592.0
0.46500 141610582016.0
0.47500 144259907584.0
0.48500 148831748096.0
0.49500 152505761792.0
0.50500 156142764032.0
0.51500 162284306432.0
0.52500 165593661440.0
0.53500 169701163008.0
0.54500 173623050240.0
0.55500 176154443776.0
0.56500 182211493888.0
0.57500 185558450176.0
0.58500 188084551680.0
0.59500 191208128512.0
0.60500 192705249280.0
0.61500 197586911232.0
0.62500 200655716352.0
0.63500 200687665152.0
0.64500 202006478848.0
0.65500 200412364800.0
0.66500 199143849984.0
0.67500 193198850048.0
0.68500 177539039232.0
0.69500 159714983936.0
0.70500 138437509120.0
0.71500 118701867008.0
0.72500 101585723392.0
0.73500 87125696512.0
0.74500 77909270528.0
0.75500 69488230400.0
0.76500 62451347456.0
0.77500 57030254592.0
0.78500 51543576576.0
0.79500 47975862272.0
0.80500 44249911296.0
0.81500 41003794432.0
0.82500 38731415552.0
0.83500 35687649280.0
0.84500 33545316352.0
0.85500 31520804864.0
0.86500 29509427200.0
0.87500 28105613312.0
0.88500 26461171712.0
0.89500 24889272320.0
0.90500 23674368000.0
0.91500 22413969408.0
0.92500 21254123520.0
0.93500 20039833600.0
0.94500 18976176128.0
0.95500 18288744448.0
0.96500 17340463104.0
0.97500 16585888768.0
0.98500 15809692672.0
0.99500 15034783744.0
1.00500 14468642816.0
1.01500 13807376384.0
1.02500 13288253440.0
1.03500 12771409920.0
1.04500 12196332544.0
1.05500 11798543360.0
1.06500 11358714880.0
1.07500 10878203904.0
1.08500 10452277248.0
1.09500 9955670016.0
1.10500 9557852160.0
1.11500 9254210560.0
1.12500 8858951680.0
1.13500 8519242240.0
1.14500 8205880320.0
1.15500 7963968000.0
1.16500 7588400640.0
1.17500 7426636288.0
1.18500 7223630336.0
1.19500 6906478080.0
1.20500 6725148672.0
1.21500 6546853888.0
1.22500 6197788160.0
1.23500 5972126208.0
1.24500 5809411072.0
1.25500 5523767296.0
1.26500 5310873600.0
1.27500 5220950016.0
1.28500 4996322816.0
1.29500 4768619520.0
1.30500 4721867264.0
1.31500 4578367488.0
1.32500 4312316928.0
1.33500 4227217920.0
1.34500 4176871936.0
1.35500 3922386944.0
1.36500 3811457792.0
1.37500 3753322240.0
1.38500 3611094784.0
1.39500 3454658560.0
1.40500 3456267008.0
1.41500 3350764032.0
1.42500 3137436928.0
1.43500 3093481984.0
1.44500 3067763712.0
1.45500 2862225920.0
1.46500 2773924864.0
1.47500 2807139072.0
1.48500 2691567104.0
1.49500 2539648000.0
1.50500 2540249344.0
1.51500 2531382784.0
1.52500 2380932352.0
1.53500 2304378368.0
1.54500 2332278528.0
1.55500 2202553600.0
1.56500 2086506112.0
1.57500 2101372160.0
1.58500 2064311808.0
1.59500 1908686848.0
1.60500 1919818880.0
1.61500 1944460416.0
1.62500 1831405696.0
1.63500 1733426816.0
1.64500 1812609792.0
1.65500 1779619200.0
1.66500 1653964032.0
1.67500 1669221632.0
1.68500 1724490368.0
1.69500 1625434624.0
1.70500 1548055552.0
1.71500 1627868032.0
1.72500 1628287488.0
1.73500 1478717952.0
1.74500 1490703104.0
1.75500 1592457984.0
1.76500 1518798976.0
1.77500 1417897216.0
1.78500 1526518656.0
1.79500 1588080640.0
1.80500 1449419392.0
1.81500 1442832512.0
1.82500 1630539136.0
1.83500 1611351680.0
1.84500 1501905152.0
1.85500 1590975616.0
1.86500 1778975872.0
1.87500 1682731136.0
1.88500 1638244864.0
1.89500 1882297088.0
1.90500 2028062720.0
1.91500 1893065600.0
1.92500 2023657472.0
1.93500 2387980800.0
1.94500 2509650176.0
1.95500 2574386688.0
1.96500 3151365888.0
1.97500 3875117568.0
1.98500 4269634560.0
1.99500 5375582208.0
2.00500 7456732160.0
2.01500 10159753216.0
2.02500 15989932032.0
2.03500 30199195648.0
2.04500 54860722176.0
2.05500 77469925376.0
2.06500 85254291456.0
2.07500 73375825920.0
2.08500 49514422272.0
2.09500 26570604544.0
2.10500 14567573504.0
2.11500 10126650368.0
2.12500 7365815808.0
2.13500 5205944320.0
2.14500 3933365248.0
2.15500 3289285888.0
2.16500 2619180800.0
2.17500 2002232448.0
2.18500 1733398784.0
2.19500 1552041344.0
2.20500 1268984960.0
2.21500 1055070336.0
2.22500 943861632.0
2.23500 847281216.0
2.24500 702648384.0
2.25500 603970176.0
2.26500 561959232.0
2.27500 482258752.0
2.28500 414039904.0
2.29500 386895040.0
2.30500 361050752.0
2.31500 322759808.0
2.32500 284482880.0
2.33500 271225088.0
2.34500 256624752.0
2.35500 223046768.0
2.36500 207733184.0
2.37500 201034368.0
2.38500 183958688.0
2.39500 164799232.0
2.40500 152590336.0
2.41500 145192272.0
2.42500 129724864.0
2.43500 117460016.0
2.44500 114593088.0
2.45500 102565992.0
2.46500 92105208.0
2.47500 86245496.0
2.48500 80315856.0
2.49500 75812688.0
2.50500 68540488.0
2.51500 66386796.0
2.52500 61855656.0
2.53500 55254736.0
2.54500 52583600.0
2.55500 49255168.0
2.56500 45451248.0
2.57500 43101768.0
2.58500 39745368.0
2.59500 39074088.0
2.60500 38654540.0
2.61500 36179196.0
2.62500 35465960.0
2.63500 35703704.0
2.64500 33200390.0
2.65500 31703996.0
2.66500 32235424.0
2.67500 33144450.0
2.68500 34500996.0
2.69500 37074236.0
2.70500 38514688.0
2.71500 33508060.0
2.72500 30179630.0
2.73500 29144740.0
2.74500 31172564.0
2.75500 29032860.0
2.76500 27242780.0
2.77500 26641424.0
2.78500 26277816.0
2.79500 24585630.0
2.80500 25256910.0
2.81500 23942320.0
2.82500 22907430.0
2.83500 24459764.0
2.84500 23620664.0
2.85500 22515850.0
2.86500 20208324.0
2.87500 19984564.0
2.88500 21327124.0
2.89500 20250280.0
2.90500 18264410.0
2.91500 19928624.0
2.92500 17914784.0
2.93500 19928624.0
2.94500 18837796.0
2.95500 21019456.0
2.96500 19089524.0
2.97500 18935690.0
2.98500 16376435.0
2.99500 16530270.0
3.00500 18628020.0
3.01500 16879896.0
3.02500 17397340.0
3.03500 16837940.0
3.04500 17509220.0
3.05500 15173725.0
3.06500 16068765.0
3.07500 16530270.0
3.08500 15173725.0
3.09500 15984855.0
3.10500 15467410.0
3.11500 16180645.0
3.12500 15243650.0
3.13500 13929060.0
3.14500 17802904.0
3.15500 18152530.0
3.16500 15005905.0
3.17500 16362450.0
3.18500 17383356.0
3.19500 21327124.0
3.20500 18809824.0
3.21500 16893880.0
3.22500 17984710.0
3.23500 15075830.0
3.24500 14250715.0
3.25500 15775080.0
3.26500 15159740.0
3.27500 14334625.0
3.28500 13173870.0
3.29500 15411470.0
3.30500 14096880.0
3.31500 13943045.0
3.32500 13103945.0
3.33500 14376580.0
3.34500 13859135.0
3.35500 14614325.0
3.36500 15481395.0
3.37500 14642295.0
3.38500 13159885.0
3.39500 13859135.0
3.40500 14040940.0
3.41500 12404695.0
3.42500 11845295.0
3.43500 13201840.0
3.44500 12880185.0
3.45500 12880185.0
3.46500 11509655.0
3.47500 13579435.0
3.48500 12642440.0
3.49500 13145900.0
3.50500 11355820.0
3.51500 12782290.0
3.52500 14292670.0
3.53500 12894170.0
3.54500 11705445.0
3.55500 12194920.0
3.56500 12684395.0
3.57500 11174015.0
3.58500 10978225.0
3.59500 11887250.0
3.60500 11369805.0
3.61500 10978225.0
3.62500 10446795.0
3.63500 12446650.0
3.64500 12334770.0
3.65500 12166950.0
3.66500 11565595.0
3.67500 12390710.0
3.68500 11761385.0
3.69500 12152965.0
3.70500 12964095.0
3.71500 13509510.0
3.72500 14516430.0
3.73500 13677330.0
3.74500 15047860.0
3.75500 13579435.0
3.76500 13215825.0
3.77500 13187855.0
3.78500 14432520.0
3.79500 15593275.0
3.80500 15579290.0
3.81500 15858990.0
3.82500 16306510.0
3.83500 16782000.0
3.84500 15103800.0
3.85500 13299735.0
3.86500 15243650.0
3.87500 14558385.0
3.88500 15831020.0
3.89500 16572225.0
3.90500 19606970.0
3.91500 24403824.0
3.92500 32291364.0
3.93500 39074088.0
3.94500 51744500.0
3.95500 63212200.0
3.96500 69952968.0
3.97500 67002136.0
3.98500 55170824.0
3.99500 44402376.0
4.00500 38151080.0
4.01500 34780696.0
4.02500 30934820.0
4.03500 26361724.0
4.04500 24249990.0
4.05500 21788630.0
4.06500 22739610.0
4.07500 20585920.0
4.08500 19201404.0
4.09500 17117640.0
4.10500 15886960.0
4.11500 17956740.0
4.12500 19285316.0
4.13500 16208615.0
4.14500 15858990.0
4.15500 14544400.0
4.16500 14306655.0
4.17500 15747110.0
4.18500 15061845.0
4.19500 13733270.0
4.20500 12278830.0
4.21500 14362595.0
4.22500 15397485.0
4.23500 13775225.0
4.24500 13607405.0
4.25500 13789210.0
4.26500 11579580.0
4.27500 10530705.0
4.28500 14488460.0
4.29500 17257490.0
4.30500 14754175.0
4.31500 14963950.0
4.32500 15817035.0
4.33500 13579435.0
4.34500 13034020.0
4.35500 12376725.0
4.36500 12586500.0
4.37500 13243795.0
4.38500 13229810.0
4.39500 13006050.0
4.40500 12712365.0
4.41500 13411615.0
4.42500 13061990.0
4.43500 14250715.0
4.44500 12502590.0
4.45500 10768450.0
4.46500 10964240.0
4.47500 10097170.0
4.48500 11118075.0
4.49500 10628600.0
4.50500 11369805.0
4.51500 11663490.0
4.52500 10111155.0
4.53500 10083185.0
4.54500 10125140.0
4.55500 10586645.0
4.56500 9943335.0
4.57500 9887395.0
4.58500 9887395.0
4.59500 10446795.0
4.60500 11355820.0
4.61500 9873410.0
4.62500 10334915.0
4.63500 9845440.0
4.64500 10181080.0
4.65500 9216115.0
4.66500 9188145.0
4.67500 8516865.0
4.68500 8516865.0
4.69500 8768595.0
4.70500 10334915.0
4.71500 9481830.0
4.72500 8335060.0
4.73500 8866490.0
4.74500 10264990.0
4.75500 8992355.0
4.76500 8391000.0
4.77500 9202130.0
4.78500 8628745.0
4.79500 7999420.0
4.80500 7789645.0
4.81500 8027390.0
4.82500 8768595.0
4.83500 8614760.0
4.84500 8125285.0
4.85500 8936415.0
4.86500 9160175.0
4.87500 9132205.0
4.88500 7398065.0
4.89500 8544835.0
4.90500 8474910.0
4.91500 8223180.0
4.92500 7384080.0
4.93500 8740625.0
4.94500 8139270.0
4.95500 7523930.0
4.96500 7132350.0
4.97500 7747690.0
4.98500 7677765.0
4.99500 9048295.0
5.00500 8586790.0
5.01500 7300170.0
5.02500 7845585.0
5.03500 7314155.0
5.04500 8600775.0
5.05500 7719720.0
5.06500 7188290.0
5.07500 7803630.0
5.08500 7272200.0
5.09500 6656860.0
5.10500 7356110.0
5.11500 7593855.0
5.12500 6614905.0
5.13500 7244230.0
5.14500 7705735.0
5.15500 7090395.0
5.16500 8181225.0
5.17500 7551900.0
5.18500 8391000.0
5.19500 6642875.0
5.20500 6181370.0
5.21500 7174305.0
5.22500 7495960.0
5.23500 7244230.0
5.24500 7286185.0
5.25500 7272200.0
5.26500 6978515.0
5.27500 6824680.0
5.28500 7509945.0
5.29500 6377160.0
5.30500 6768740.0
5.31500 6013550.0
5.32500 6265280.0
5.33500 6125430.0
5.34500 6614905.0
5.35500 6978515.0
5.36500 6684830.0
5.37500 5244375.0
5.38500 5454150.0
5.39500 5915655.0
5.40500 6223325.0
5.41500 6083475.0
5.42500 5300315.0
5.43500 5258360.0
5.44500 5733850.0
5.45500 5594000.0
5.46500 5775805.0
5.47500 5244375.0
5.48500 5943625.0
5.49500 6335205.0
5.50500 6125430.0
5.51500 5272345.0
5.52500 5006630.0
5.53500 4712945.0
5.54500 3999710.0
5.55500 5915655.0
5.56500 6405130.0
5.57500 9341980.0
5.58500 8209195.0
5.59500 7230245.0
5.60500 6894605.0
5.61500 6377160.0
5.62500 5188435.0
5.63500 6433100.0
5.64500 7537915.0
5.65500 6097460.0
5.66500 5412195.0
5.67500 4796855.0
5.68500 5048585.0
5.69500 4321365.0
5.70500 4978660.0
5.71500 4391290.0
5.72500 3943770.0
5.73500 4950690.0
5.74500 5202420.0
5.75500 5020615.0
5.76500 4587080.0
5.77500 5412195.0
5.78500 4782870.0
5.79500 4838810.0
5.80500 3985725.0
5.81500 5090540.0
5.82500 5524075.0
5.83500 5020615.0
5.84500 4559110.0
5.85500 4643020.0
5.86500 4363320.0
5.87500 3859860.0
5.88500 4447230.0
5.89500 4111590.0
5.90500 4293395.0
5.91500 5118510.0
5.92500 4321365.0
5.93500 4097605.0
5.94500 4726930.0
5.95500 4908735.0
5.96500 5118510.0
5.97500 5216405.0
5.98500 4866780.0
5.99500 5132495.0
6.00500 4209485.0
6.01500 5006630.0
6.02500 5831745.0
6.03500 5188435.0
6.04500 5496105.0
6.05500 5412195.0
6.06500 5062570.0
6.07500 4279410.0
6.08500 4195500.0
6.09500 5803775.0
6.10500 6153400.0
6.11500 4838810.0
6.12500 4657005.0
6.13500 4069635.0
6.14500 4293395.0
6.15500 4838810.0
6.16500 4726930.0
6.17500 4013695.0
6.18500 5020615.0
6.19500 6069490.0
6.20500 5482120.0
6.21500 5258360.0
6.22500 4698960.0
6.23500 3566175.0
6.24500 4712945.0
6.25500 3985725.0
6.26500 3244520.0
6.27500 3076700.0
6.28500 3272490.0
6.29500 3761965.0
6.30500 3272490.0
6.31500 4069635.0
6.32500 3468280.0
6.33500 3454295.0
6.34500 3104670.0
6.35500 3328430.0
6.36500 3202565.0
6.37500 3328430.0
6.38500 4307380.0
6.39500 4041665.0
6.40500 3342415.0
6.41500 3454295.0
6.42500 3272490.0
6.43500 2531285.0
6.44500 2852940.0
6.45500 4111590.0
6.46500 4307380.0
6.47500 4629035.0
6.48500 3957755.0
6.49500 3943770.0
6.50500 4657005.0
6.51500 4489185.0
6.52500 4321365.0
6.53500 4279410.0
6.54500 3915800.0
6.55500 3692040.0
6.56500 3020760.0
6.57500 3761965.0
6.58500 3538205.0
6.59500 3314445.0
6.60500 4181515.0
6.61500 4293395.0
6.62500 3733995.0
6.63500 4349335.0
6.64500 4503170.0
6.65500 4531140.0
6.66500 5607985.0
6.67500 6544980.0
6.68500 6461070.0
6.69500 5873700.0
6.70500 5538060.0
6.71500 4629035.0
6.72500 4796855.0
6.73500 4251440.0
6.74500 3831890.0
6.75500 4293395.0
6.76500 5174450.0
6.77500 5468135.0
6.78500 4657005.0
6.79500 5440165.0
6.80500 4559110.0
6.81500 3985725.0
6.82500 3775950.0
6.83500 3803920.0
6.84500 5174450.0
6.85500 4531140.0
6.86500 4251440.0
6.87500 4321365.0
6.88500 4027680.0
6.89500 3230535.0
6.90500 3985725.0
6.91500 5929640.0
6.92500 4978660.0
6.93500 5929640.0
6.94500 4782870.0
6.95500 4097605.0
6.96500 4517155.0
6.97500 4852795.0
6.98500 5594000.0
6.99500 5118510.0
7.00500 4265425.0
7.01500 4726930.0
7.02500 5370240.0
7.03500 4027680.0
7.04500 5454150.0
7.05500 6754755.0
7.06500 6782725.0
7.07500 5384225.0
7.08500 5356255.0
7.09500 5566030.0
7.10500 6908590.0
7.11500 5230390.0
7.12500 6754755.0
7.13500 8013405.0
7.14500 7579870.0
7.15500 8782580.0
7.16500 7104380.0
7.17500 6223325.0
7.18500 6475055.0
7.19500 5859715.0
7.20500 6055505.0
7.21500 6712800.0
7.22500 6307235.0
7.23500 6656860.0
7.24500 8209195.0
7.25500 6237310.0
7.26500 7160320.0
7.27500 5104525.0
7.28500 5845730.0
7.29500 6195355.0
7.30500 6992500.0
7.31500 5873700.0
7.32500 6279265.0
7.33500 5482120.0
7.34500 5342270.0
7.35500 6391145.0
7.36500 5621970.0
7.37500 5496105.0
7.38500 6824680.0
7.39500 6069490.0
7.40500 5328285.0
7.41500 5580015.0
7.42500 4950690.0
7.43500 6111445.0
7.44500 4475200.0
7.45500 5118510.0
7.46500 3999710.0
7.47500 3901815.0
7.48500 5621970.0
7.49500 6209340.0
7.50500 5705880.0
7.51500 5496105.0
7.52500 6377160.0
7.53500 7160320.0
7.54500 6964530.0
7.55500 5873700.0
7.56500 4796855.0
7.57500 7188290.0
7.58500 6600920.0
7.59500 5957610.0
7.60500 6810695.0
7.61500 6852650.0
7.62500 6405130.0
7.63500 5775805.0
7.64500 4545125.0
7.65500 4698960.0
7.66500 5496105.0
7.67500 4475200.0
7.68500 3160610.0
7.69500 3859860.0
7.70500 4209485.0
7.71500 5244375.0
7.72500 4489185.0
7.73500 4615050.0
7.74500 3999710.0
7.75500 4097605.0
7.76500 3845875.0
7.77500 3915800.0
7.78500 4852795.0
7.79500 6489040.0
7.80500 4992645.0
7.81500 4978660.0
7.82500 5258360.0
7.83500 6712800.0
7.84500 5915655.0
7.85500 4391290.0
7.86500 5999565.0
7.87500 7440020.0
7.88500 6027535.0
7.89500 5761820.0
7.90500 4587080.0
7.91500 5635955.0
7.92500 6866635.0
7.93500 6530995.0
7.94500 6866635.0
7.95500 6782725.0
7.96500 7272200.0
7.97500 11915220.0
7.98500 7286185.0
7.99500 5356255.0
8.00500 4978660.0
8.01500 5020615.0
8.02500 4838810.0
8.03500 4545125.0
8.04500 3664070.0
8.05500 4167530.0
8.06500 4908735.0
8.07500 4587080.0
8.08500 5146480.0
8.09500 6209340.0
8.10500 7314155.0
8.11500 7747690.0
8.12500 6391145.0
8.13500 4573095.0
8.14500 5566030.0
8.15500 4069635.0
8.16500 5006630.0
8.17500 4698960.0
8.18500 3118655.0
8.19500 3845875.0
8.20500 5691895.0
8.21500 9090250.0
