0.00500 42274204.0
0.01500 46344748.0
0.02500 36117888.0
0.03500 22777580.0
0.04500 12181031.0
0.05500 6666482.0
0.06500 4706319.0
0.07500 4667959.0
0.08500 5302425.0
0.09500 5981886.0
0.10500 6722541.0
0.11500 7473883.0
0.12500 8178098.0
0.13500 8904940.0
0.14500 9544590.0
0.15500 10238780.0
0.16500 10908523.0
0.17500 11566066.0
0.18500 12230670.0
0.19500 12920350.0
0.20500 13525779.0
0.21500 14108378.0
0.22500 14707459.0
0.23500 15317350.0
0.24500 15814906.0
0.25500 16338311.0
0.26500 16990398.0
0.27500 17491764.0
0.28500 17986598.0
0.29500 18683572.0
0.30500 19054570.0
0.31500 19535040.0
0.32500 19950916.0
0.33500 20420908.0
0.34500 20893800.0
0.35500 21164356.0
0.36500 21611088.0
0.37500 21992472.0
0.38500 22300928.0
0.39500 22709162.0
0.40500 23024676.0
0.41500 23398920.0
0.42500 23779908.0
0.43500 24040284.0
0.44500 24377850.0
0.45500 24581568.0
0.46500 24954792.0
0.47500 25121488.0
0.48500 25347550.0
0.49500 25507644.0
0.50500 25782120.0
0.51500 25887528.0
0.52500 25958880.0
0.53500 25918364.0
0.54500 25935632.0
0.55500 26059852.0
0.56500 25968088.0
0.57500 25970576.0
0.58500 25822644.0
0.59500 25692688.0
0.60500 25558020.0
0.61500 25310528.0
0.62500 25131412.0
0.63500 24861772.0
0.64500 24342484.0
0.65500 23790966.0
0.66500 23286392.0
0.67500 22624172.0
0.68500 21653444.0
0.69500 20645416.0
0.70500 19578984.0
0.71500 18340140.0
0.72500 17077726.0
0.73500 15584821.0
0.74500 14186006.0
0.75500 12905713.0
0.76500 11506926.0
0.77500 10319292.0
0.78500 9290213.0
0.79500 8345843.0
0.80500 7588010.0
0.81500 6833086.0
0.82500 6215175.0
0.83500 5683109.0
0.84500 5224225.0
0.85500 4841664.0
0.86500 4441500.0
0.87500 4047738.0
0.88500 3765279.0
0.89500 3467114.0
0.90500 3248252.0
0.91500 3010777.0
0.92500 2811269.0
0.93500 2630934.0
0.94500 2462351.0
0.95500 2305537.0
0.96500 2176287.0
0.97500 2045522.0
0.98500 1929288.0
0.99500 1830051.0
1.00500 1727203.0
1.01500 1636429.0
1.02500 1535479.0
1.03500 1457097.0
1.04500 1377394.0
1.05500 1301519.0
1.06500 1239032.0
1.07500 1175985.0
1.08500 1118145.0
1.09500 1064173.0
1.10500 1011500.0
1.11500 965158.0
1.12500 925507.0
1.13500 878066.0
1.14500 835327.0
1.15500 797935.0
1.16500 763133.0
1.17500 728192.0
1.18500 701398.0
1.19500 671620.0
1.20500 642641.0
1.21500 616808.0
1.22500 591044.0
1.23500 568738.0
1.24500 542141.0
1.25500 520602.0
1.26500 500784.0
1.27500 483036.0
1.28500 466901.0
1.29500 448350.0
1.30500 425959.0
1.31500 411497.0
1.32500 397747.0
1.33500 381706.0
1.34500 369632.0
1.35500 354786.0
1.36500 342815.0
1.37500 331446.0
1.38500 319748.0
1.39500 308284.0
1.40500 298488.0
1.41500 290700.0
1.42500 283685.0
1.43500 273909.0
1.44500 264776.0
1.45500 257051.0
1.46500 248213.0
1.47500 241061.0
1.48500 235357.0
1.49500 230021.0
1.50500 226036.0
1.51500 220767.0
1.52500 213724.0
1.53500 209719.0
1.54500 204259.0
1.55500 199024.0
1.56500 195587.0
1.57500 191579.0
1.58500 187719.0
1.59500 183338.0
1.60500 179394.0
1.61500 176655.0
1.62500 172394.0
1.63500 170295.0
1.64500 168467.0
1.65500 165384.0
1.66500 165505.0
1.67500 163890.0
1.68500 162194.0
1.69500 161958.0
1.70500 163894.0
1.71500 163381.0
1.72500 165357.0
1.73500 166379.0
1.74500 167034.0
1.75500 168760.0
1.76500 173072.0
1.77500 176302.0
1.78500 178012.0
1.79500 183625.0
1.80500 189744.0
1.81500 197491.0
1.82500 207540.0
1.83500 219836.0
1.84500 237582.0
1.85500 254478.0
1.86500 281675.0
1.87500 320357.0
1.88500 362518.0
1.89500 433666.0
1.90500 529295.0
1.91500 668820.0
1.92500 894740.0
1.93500 1195052.0
1.94500 1591092.0
1.95500 1917159.0
1.96500 2069395.0
1.97500 1996241.0
1.98500 1709010.0
1.99500 1329479.0
2.00500 944462.0
2.01500 653181.0
2.02500 436746.0
2.03500 316030.0
2.04500 233629.0
2.05500 174557.0
2.06500 136752.0
2.07500 107369.0
2.08500 84565.0
2.09500 67785.0
2.10500 54467.0
2.11500 44853.0
2.12500 36430.0
2.13500 29434.0
2.14500 24753.0
2.15500 20648.0
2.16500 17596.0
2.17500 15331.0
2.18500 12860.0
2.19500 11427.0
2.20500 9963.0
2.21500 9134.0
2.22500 8237.0
2.23500 7158.0
2.24500 6482.0
2.25500 5991.0
2.26500 5466.0
2.27500 5166.0
2.28500 4710.0
2.29500 4455.0
2.30500 4190.0
2.31500 3754.0
2.32500 3476.0
2.33500 3156.0
2.34500 3107.0
2.35500 2823.0
2.36500 2628.0
2.37500 2658.0
2.38500 2400.0
2.39500 2312.0
2.40500 2212.0
2.41500 2154.0
2.42500 2015.0
2.43500 1906.0
2.44500 1835.0
2.45500 1843.0
2.46500 1764.0
2.47500 1826.0
2.48500 1671.0
2.49500 1617.0
2.50500 1563.0
2.51500 1593.0
2.52500 1508.0
2.53500 1396.0
2.54500 1431.0
2.55500 1414.0
2.56500 1312.0
2.57500 1245.0
2.58500 1219.0
2.59500 1254.0
2.60500 1202.0
2.61500 1113.0
2.62500 1136.0
2.63500 1155.0
2.64500 1180.0
2.65500 1147.0
2.66500 1115.0
2.67500 1069.0
2.68500 1121.0
2.69500 1130.0
2.70500 967.0
2.71500 929.0
2.72500 968.0
2.73500 859.0
2.74500 843.0
2.75500 820.0
2.76500 790.0
2.77500 769.0
2.78500 866.0
2.79500 855.0
2.80500 818.0
2.81500 763.0
2.82500 795.0
2.83500 794.0
2.84500 672.0
2.85500 698.0
2.86500 661.0
2.87500 693.0
2.88500 638.0
2.89500 666.0
2.90500 693.0
2.91500 676.0
2.92500 611.0
2.93500 594.0
2.94500 542.0
2.95500 590.0
2.96500 612.0
2.97500 603.0
2.98500 524.0
2.99500 520.0
3.00500 528.0
3.01500 521.0
3.02500 526.0
3.03500 486.0
3.04500 542.0
3.05500 531.0
3.06500 473.0
3.07500 530.0
3.08500 539.0
3.09500 492.0
3.10500 497.0
3.11500 457.0
3.12500 439.0
3.13500 396.0
3.14500 415.0
3.15500 425.0
3.16500 459.0
3.17500 486.0
3.18500 427.0
3.19500 453.0
3.20500 417.0
3.21500 443.0
3.22500 404.0
3.23500 366.0
3.24500 468.0
3.25500 465.0
3.26500 482.0
3.27500 438.0
3.28500 413.0
3.29500 435.0
3.30500 447.0
3.31500 487.0
3.32500 383.0
3.33500 381.0
3.34500 315.0
3.35500 320.0
3.36500 277.0
3.37500 355.0
3.38500 361.0
3.39500 331.0
3.40500 344.0
3.41500 365.0
3.42500 385.0
3.43500 363.0
3.44500 401.0
3.45500 442.0
3.46500 459.0
3.47500 504.0
3.48500 533.0
3.49500 591.0
3.50500 647.0
3.51500 725.0
3.52500 870.0
3.53500 896.0
3.54500 914.0
3.55500 1035.0
3.56500 1207.0
3.57500 1357.0
3.58500 1532.0
3.59500 1911.0
3.60500 2306.0
3.61500 2839.0
3.62500 3679.0
3.63500 4754.0
3.64500 6653.0
3.65500 8911.0
3.66500 12693.0
3.67500 19238.0
3.68500 28275.0
3.69500 48743.0
3.70500 83866.0
3.71500 136385.0
3.72500 196928.0
3.73500 238675.0
3.74500 256435.0
3.75500 246726.0
3.76500 216198.0
3.77500 170725.0
3.78500 126186.0
3.79500 90396.0
3.80500 67131.0
3.81500 54108.0
3.82500 43306.0
3.83500 36046.0
3.84500 31269.0
3.85500 27007.0
3.86500 23665.0
3.87500 20755.0
3.88500 18619.0
3.89500 16313.0
3.90500 14702.0
3.91500 13723.0
3.92500 12032.0
3.93500 11215.0
3.94500 10243.0
3.95500 9346.0
3.96500 8709.0
3.97500 7844.0
3.98500 7384.0
3.99500 6823.0
4.00500 6394.0
4.01500 5904.0
4.02500 5562.0
4.03500 5210.0
4.04500 4748.0
4.05500 4496.0
4.06500 4234.0
4.07500 3966.0
4.08500 3469.0
4.09500 3390.0
4.10500 3211.0
4.11500 3124.0
4.12500 2948.0
4.13500 2819.0
4.14500 2579.0
4.15500 2633.0
4.16500 2371.0
4.17500 2320.0
4.18500 2189.0
4.19500 2136.0
4.20500 2049.0
4.21500 2015.0
4.22500 1990.0
4.23500 1786.0
4.24500 1808.0
4.25500 1615.0
4.26500 1640.0
4.27500 1592.0
4.28500 1477.0
4.29500 1496.0
4.30500 1507.0
4.31500 1454.0
4.32500 1351.0
4.33500 1351.0
4.34500 1334.0
4.35500 1403.0
4.36500 1273.0
4.37500 1285.0
4.38500 1127.0
4.39500 1184.0
4.40500 1175.0
4.41500 1103.0
4.42500 1060.0
4.43500 1117.0
4.44500 989.0
4.45500 1022.0
4.46500 1109.0
4.47500 1015.0
4.48500 994.0
4.49500 977.0
4.50500 839.0
4.51500 1081.0
4.52500 1028.0
4.53500 954.0
4.54500 829.0
4.55500 869.0
4.56500 799.0
4.57500 757.0
4.58500 794.0
4.59500 732.0
4.60500 735.0
4.61500 714.0
4.62500 740.0
4.63500 752.0
4.64500 685.0
4.65500 812.0
4.66500 755.0
4.67500 778.0
4.68500 641.0
4.69500 709.0
4.70500 651.0
4.71500 713.0
4.72500 652.0
4.73500 581.0
4.74500 622.0
4.75500 610.0
4.76500 705.0
4.77500 627.0
4.78500 666.0
4.79500 582.0
4.80500 569.0
4.81500 609.0
4.82500 554.0
4.83500 526.0
4.84500 497.0
4.85500 535.0
4.86500 576.0
4.87500 506.0
4.88500 505.0
4.89500 525.0
4.90500 624.0
4.91500 593.0
4.92500 605.0
4.93500 691.0
4.94500 563.0
4.95500 565.0
4.96500 540.0
4.97500 561.0
4.98500 584.0
4.99500 632.0
5.00500 511.0
5.01500 678.0
5.02500 619.0
5.03500 587.0
5.04500 628.0
5.05500 529.0
5.06500 480.0
5.07500 520.0
5.08500 437.0
5.09500 431.0
5.10500 408.0
5.11500 453.0
5.12500 417.0
5.13500 359.0
5.14500 434.0
5.15500 392.0
5.16500 449.0
5.17500 468.0
5.18500 432.0
5.19500 480.0
5.20500 531.0
5.21500 472.0
5.22500 409.0
5.23500 392.0
5.24500 415.0
5.25500 440.0
5.26500 362.0
5.27500 296.0
5.28500 292.0
5.29500 308.0
5.30500 326.0
5.31500 350.0
5.32500 344.0
5.33500 363.0
5.34500 354.0
5.35500 455.0
5.36500 404.0
5.37500 472.0
5.38500 423.0
5.39500 387.0
5.40500 419.0
5.41500 448.0
5.42500 411.0
5.43500 465.0
5.44500 416.0
5.45500 443.0
5.46500 491.0
5.47500 620.0
5.48500 528.0
5.49500 741.0
5.50500 1140.0
5.51500 1720.0
5.52500 2896.0
5.53500 4708.0
5.54500 6528.0
5.55500 8507.0
5.56500 9366.0
5.57500 9035.0
5.58500 8377.0
5.59500 7072.0
5.60500 5595.0
5.61500 4465.0
5.62500 3467.0
5.63500 2927.0
5.64500 2482.0
5.65500 2163.0
5.66500 1945.0
5.67500 1718.0
5.68500 1626.0
5.69500 1443.0
5.70500 1373.0
5.71500 1192.0
5.72500 1254.0
5.73500 1198.0
5.74500 967.0
5.75500 990.0
5.76500 971.0
5.77500 912.0
5.78500 894.0
5.79500 824.0
5.80500 732.0
5.81500 620.0
5.82500 702.0
5.83500 645.0
5.84500 708.0
5.85500 654.0
5.86500 567.0
5.87500 596.0
5.88500 551.0
5.89500 584.0
5.90500 523.0
5.91500 575.0
5.92500 609.0
5.93500 519.0
5.94500 507.0
5.95500 595.0
5.96500 587.0
5.97500 604.0
5.98500 484.0
5.99500 569.0
6.00500 497.0
6.01500 535.0
6.02500 494.0
6.03500 386.0
6.04500 348.0
6.05500 372.0
6.06500 408.0
6.07500 406.0
6.08500 347.0
6.09500 385.0
6.10500 386.0
6.11500 385.0
6.12500 306.0
6.13500 382.0
6.14500 354.0
6.15500 335.0
6.16500 331.0
6.17500 301.0
6.18500 392.0
6.19500 473.0
6.20500 391.0
6.21500 354.0
6.22500 443.0
6.23500 406.0
6.24500 305.0
6.25500 343.0
6.26500 431.0
6.27500 451.0
6.28500 381.0
6.29500 329.0
6.30500 253.0
6.31500 207.0
6.32500 229.0
6.33500 212.0
6.34500 209.0
6.35500 241.0
6.36500 229.0
6.37500 238.0
6.38500 226.0
6.39500 243.0
6.40500 213.0
6.41500 262.0
6.42500 230.0
6.43500 223.0
6.44500 261.0
6.45500 262.0
6.46500 250.0
6.47500 212.0
6.48500 220.0
6.49500 194.0
6.50500 176.0
6.51500 203.0
6.52500 171.0
6.53500 177.0
6.54500 192.0
6.55500 240.0
6.56500 201.0
6.57500 209.0
6.58500 219.0
6.59500 205.0
6.60500 228.0
6.61500 264.0
6.62500 230.0
6.63500 256.0
6.64500 240.0
6.65500 247.0
6.66500 197.0
6.67500 245.0
6.68500 230.0
6.69500 234.0
6.70500 214.0
6.71500 198.0
6.72500 220.0
6.73500 212.0
6.74500 179.0
6.75500 237.0
6.76500 224.0
6.77500 255.0
6.78500 213.0
6.79500 262.0
6.80500 247.0
6.81500 255.0
6.82500 240.0
6.83500 202.0
6.84500 185.0
6.85500 181.0
6.86500 207.0
6.87500 186.0
6.88500 197.0
6.89500 202.0
6.90500 206.0
6.91500 217.0
6.92500 194.0
6.93500 215.0
6.94500 227.0
6.95500 225.0
6.96500 260.0
6.97500 223.0
6.98500 305.0
6.99500 277.0
7.00500 233.0
7.01500 245.0
7.02500 290.0
7.03500 253.0
7.04500 226.0
7.05500 340.0
7.06500 308.0
7.07500 330.0
7.08500 326.0
7.09500 278.0
7.10500 276.0
7.11500 287.0
7.12500 277.0
7.13500 293.0
7.14500 264.0
7.15500 278.0
7.16500 330.0
7.17500 334.0
7.18500 377.0
7.19500 317.0
7.20500 325.0
7.21500 349.0
7.22500 322.0
7.23500 376.0
7.24500 356.0
7.25500 418.0
7.26500 379.0
7.27500 426.0
7.28500 448.0
7.29500 542.0
7.30500 530.0
7.31500 505.0
7.32500 575.0
7.33500 601.0
7.34500 813.0
7.35500 1084.0
7.36500 1328.0
7.37500 1681.0
7.38500 2050.0
7.39500 2317.0
7.40500 2206.0
7.41500 1946.0
7.42500 1772.0
7.43500 1459.0
7.44500 1215.0
7.45500 913.0
7.46500 865.0
7.47500 717.0
7.48500 621.0
7.49500 499.0
7.50500 488.0
7.51500 490.0
7.52500 436.0
7.53500 406.0
7.54500 357.0
7.55500 332.0
7.56500 361.0
7.57500 337.0
7.58500 284.0
7.59500 300.0
7.60500 330.0
7.61500 318.0
7.62500 265.0
7.63500 251.0
7.64500 268.0
7.65500 210.0
7.66500 243.0
7.67500 255.0
7.68500 304.0
7.69500 361.0
7.70500 371.0
7.71500 405.0
7.72500 309.0
7.73500 277.0
7.74500 295.0
7.75500 278.0
7.76500 253.0
7.77500 229.0
7.78500 256.0
7.79500 250.0
7.80500 239.0
7.81500 235.0
7.82500 220.0
7.83500 201.0
7.84500 197.0
7.85500 206.0
7.86500 296.0
7.87500 314.0
7.88500 329.0
7.89500 205.0
7.90500 160.0
7.91500 182.0
7.92500 182.0
7.93500 204.0
7.94500 236.0
7.95500 204.0
7.96500 239.0
7.97500 202.0
7.98500 185.0
7.99500 143.0
8.00500 154.0
8.01500 152.0
8.02500 155.0
8.03500 154.0
8.04500 132.0
8.05500 157.0
8.06500 158.0
8.07500 134.0
8.08500 122.0
8.09500 119.0
8.10500 144.0
8.11500 161.0
8.12500 185.0
8.13500 194.0
8.14500 213.0
8.15500 154.0
8.16500 161.0
8.17500 194.0
8.18500 225.0
8.19500 226.0
8.20500 264.0
8.21500 259.0
8.22500 205.0
8.23500 210.0
8.24500 234.0
8.25500 200.0
8.26500 282.0
8.27500 210.0
8.28500 262.0
8.29500 255.0
8.30500 188.0
8.31500 180.0
8.32500 184.0
8.33500 193.0
8.34500 182.0
8.35500 173.0
8.36500 228.0
8.37500 246.0
8.38500 208.0
8.39500 260.0
8.40500 206.0
8.41500 200.0
8.42500 248.0
8.43500 293.0
8.44500 226.0
8.45500 203.0
8.46500 223.0
8.47500 243.0
8.48500 234.0
8.49500 201.0
8.50500 159.0
8.51500 201.0
8.52500 150.0
8.53500 206.0
8.54500 240.0
8.55500 264.0
8.56500 265.0
8.57500 216.0
8.58500 295.0
8.59500 234.0
8.60500 219.0
8.61500 198.0
8.62500 185.0
8.63500 200.0
8.64500 184.0
8.65500 196.0
8.66500 189.0
8.67500 180.0
8.68500 178.0
8.69500 150.0
8.70500 159.0
8.71500 136.0
8.72500 172.0
8.73500 132.0
8.74500 167.0
8.75500 126.0
8.76500 137.0
8.77500 138.0
8.78500 239.0
8.79500 205.0
8.80500 159.0
8.81500 183.0
8.82500 175.0
8.83500 148.0
8.84500 184.0
8.85500 164.0
8.86500 149.0
8.87500 144.0
8.88500 167.0
8.89500 196.0
8.90500 185.0
8.91500 189.0
8.92500 188.0
8.93500 148.0
8.94500 189.0
8.95500 173.0
8.96500 201.0
8.97500 221.0
8.98500 190.0
8.99500 163.0
9.00500 220.0
9.01500 242.0
9.02500 239.0
9.03500 263.0
9.04500 235.0
9.05500 192.0
9.06500 174.0
9.07500 174.0
9.08500 134.0
9.09500 128.0
9.10500 130.0
9.11500 147.0
9.12500 207.0
9.13500 195.0
9.14500 211.0
9.15500 205.0
9.16500 271.0
9.17500 329.0
9.18500 364.0
9.19500 512.0
9.20500 625.0
9.21500 730.0
9.22500 902.0
9.23500 1017.0
9.24500 1104.0
9.25500 972.0
9.26500 902.0
9.27500 757.0
9.28500 630.0
9.29500 547.0
9.30500 483.0
9.31500 487.0
9.32500 424.0
9.33500 356.0
9.34500 314.0
9.35500 313.0
9.36500 279.0
9.37500 247.0
9.38500 235.0
9.39500 229.0
9.40500 211.0
9.41500 216.0
9.42500 176.0
9.43500 210.0
9.44500 266.0
9.45500 198.0
9.46500 193.0
9.47500 267.0
9.48500 258.0
9.49500 267.0
9.50500 261.0
9.51500 261.0
9.52500 237.0
9.53500 242.0
9.54500 245.0
9.55500 215.0
9.56500 254.0
9.57500 183.0
9.58500 174.0
9.59500 231.0
9.60500 191.0
9.61500 234.0
9.62500 236.0
9.63500 312.0
9.64500 279.0
9.65500 233.0
9.66500 238.0
9.67500 266.0
9.68500 297.0
9.69500 294.0
9.70500 270.0
9.71500 320.0
9.72500 321.0
9.73500 248.0
9.74500 217.0
9.75500 249.0
9.76500 240.0
9.77500 234.0
9.78500 183.0
9.79500 186.0
9.80500 215.0
9.81500 290.0
9.82500 221.0
9.83500 223.0
9.84500 194.0
9.85500 166.0
9.86500 195.0
9.87500 172.0
9.88500 155.0
9.89500 209.0
9.90500 171.0
9.91500 141.0
9.92500 132.0
9.93500 138.0
9.94500 109.0
9.95500 119.0
9.96500 135.0
9.97500 135.0
9.98500 118.0
9.99500 98.0
10.00500 102.0
10.01500 107.0
10.02500 107.0
10.03500 120.0
10.04500 111.0
10.05500 127.0
10.06500 149.0
10.07500 130.0
10.08500 133.0
10.09500 126.0
10.10500 112.0
10.11500 156.0
10.12500 136.0
10.13500 145.0
10.14500 174.0
10.15500 139.0
10.16500 152.0
10.17500 210.0
10.18500 206.0
10.19500 176.0
10.20500 170.0
10.21500 186.0
10.22500 154.0
10.23500 140.0
10.24500 146.0
10.25500 136.0
10.26500 162.0
10.27500 178.0
10.28500 188.0
10.29500 184.0
10.30500 165.0
10.31500 218.0
10.32500 198.0
10.33500 153.0
10.34500 182.0
10.35500 145.0
10.36500 159.0
10.37500 173.0
10.38500 209.0
10.39500 303.0
10.40500 262.0
10.41500 180.0
10.42500 141.0
10.43500 122.0
10.44500 131.0
10.45500 137.0
10.46500 130.0
10.47500 150.0
10.48500 146.0
10.49500 206.0
10.50500 261.0
10.51500 238.0
10.52500 186.0
10.53500 159.0
10.54500 179.0
10.55500 130.0
10.56500 167.0
10.57500 185.0
10.58500 183.0
10.59500 177.0
10.60500 128.0
10.61500 127.0
10.62500 126.0
10.63500 94.0
10.64500 124.0
10.65500 130.0
10.66500 139.0
10.67500 132.0
10.68500 160.0
10.69500 117.0
10.70500 106.0
10.71500 92.0
10.72500 94.0
10.73500 74.0
10.74500 110.0
10.75500 104.0
10.76500 88.0
10.77500 95.0
10.78500 60.0
10.79500 112.0
10.80500 104.0
10.81500 136.0
10.82500 173.0
10.83500 174.0
10.84500 120.0
10.85500 120.0
10.86500 87.0
10.87500 108.0
10.88500 96.0
10.89500 117.0
10.90500 108.0
10.91500 89.0
10.92500 114.0
10.93500 116.0
10.94500 98.0
10.95500 114.0
10.96500 101.0
10.97500 117.0
10.98500 133.0
10.99500 138.0
11.00500 101.0
11.01500 146.0
11.02500 164.0
11.03500 181.0
11.04500 167.0
11.05500 190.0
11.06500 185.0
11.07500 195.0
11.08500 224.0
11.09500 202.0
11.10500 166.0
11.11500 200.0
11.12500 190.0
11.13500 198.0
11.14500 153.0
11.15500 204.0
11.16500 183.0
11.17500 144.0
11.18500 170.0
11.19500 144.0
11.20500 139.0
11.21500 114.0
11.22500 150.0
11.23500 134.0
11.24500 106.0
11.25500 87.0
11.26500 94.0
11.27500 128.0
11.28500 125.0
11.29500 185.0
11.30500 129.0
11.31500 134.0
11.32500 204.0
11.33500 202.0
11.34500 155.0
11.35500 167.0
11.36500 183.0
11.37500 206.0
11.38500 144.0
11.39500 159.0
11.40500 164.0
11.41500 178.0
11.42500 191.0
11.43500 204.0
11.44500 112.0
11.45500 164.0
11.46500 189.0
11.47500 178.0
11.48500 185.0
11.49500 252.0
11.50500 148.0
11.51500 180.0
11.52500 206.0
11.53500 166.0
11.54500 159.0
11.55500 185.0
11.56500 236.0
11.57500 250.0
11.58500 239.0
11.59500 188.0
11.60500 218.0
11.61500 271.0
11.62500 255.0
11.63500 308.0
11.64500 315.0
11.65500 310.0
11.66500 342.0
11.67500 242.0
11.68500 217.0
11.69500 161.0
11.70500 197.0
11.71500 262.0
11.72500 235.0
11.73500 168.0
11.74500 186.0
11.75500 193.0
11.76500 166.0
11.77500 241.0
11.78500 173.0
11.79500 182.0
11.80500 165.0
11.81500 149.0
11.82500 183.0
11.83500 162.0
11.84500 193.0
11.85500 165.0
11.86500 271.0
11.87500 225.0
11.88500 193.0
11.89500 185.0
11.90500 187.0
11.91500 183.0
11.92500 221.0
11.93500 205.0
11.94500 193.0
11.95500 222.0
11.96500 195.0
11.97500 195.0
11.98500 163.0
11.99500 189.0
