0.800000 1538592.0
0.810000 1539833.0
0.820000 1500870.0
0.830000 1377337.0
0.840000 1193338.0
0.850000 1048576.0
0.860000 900981.0
0.870000 815590.0
0.880000 716224.0
0.890000 667652.0
0.900000 596911.0
0.910000 570327.0
0.920000 513802.0
0.930000 488601.0
0.940000 436525.0
0.950000 416154.0
0.960000 375769.0
0.970000 362765.0
0.980000 327642.0
0.990000 322170.0
1.000000 292465.0
1.010000 290305.0
1.020000 260100.0
1.030000 255631.0
1.040000 230208.0
1.050000 222784.0
1.060000 198827.0
1.070000 193160.0
1.080000 171644.0
1.090000 171727.0
1.100000 152022.0
1.110000 155000.0
1.120000 141301.0
1.130000 145085.0
1.140000 130538.0
1.150000 136382.0
1.160000 120965.0
1.170000 123763.0
1.180000 109627.0
1.190000 111890.0
1.200000 97781.0
1.210000 100806.0
1.220000 87084.0
1.230000 90360.0
1.240000 81910.0
1.250000 84506.0
1.260000 75515.0
1.270000 81624.0
1.280000 70862.0
1.290000 76342.0
1.300000 68278.0
1.310000 70543.0
1.320000 61703.0
1.330000 65741.0
1.340000 53639.0
1.350000 58516.0
1.360000 51756.0
1.370000 52670.0
1.380000 46225.0
1.390000 51076.0
1.400000 43306.0
1.410000 46872.0
1.420000 42642.0
1.430000 46872.0
1.440000 40804.0
1.450000 46656.0
1.460000 40643.0
1.470000 42808.0
1.480000 38377.0
1.490000 41331.0
1.500000 33306.0
1.510000 36557.0
1.520000 32472.0
1.530000 33966.0
1.540000 29344.0
1.550000 33526.0
1.560000 28832.0
1.570000 31720.0
1.580000 29275.0
1.590000 33343.0
1.600000 28798.0
1.610000 33088.0
1.620000 30520.0
1.630000 32616.0
1.640000 28090.0
1.650000 31791.0
1.660000 26732.0
1.670000 28527.0
1.680000 26439.0
1.690000 28696.0
1.700000 24056.0
1.710000 26179.0
1.720000 25091.0
1.730000 26634.0
1.740000 23685.0
1.750000 28629.0
1.760000 26634.0
1.770000 29584.0
1.780000 27922.0
1.790000 32652.0
1.800000 28968.0
1.810000 30625.0
1.820000 29344.0
1.830000 32652.0
1.840000 27622.0
1.850000 30730.0
1.860000 29207.0
1.870000 30380.0
1.880000 27324.0
1.890000 32328.0
1.900000 29791.0
1.910000 33672.0
1.920000 34633.0
1.930000 42973.0
1.940000 40643.0
1.950000 48444.0
1.960000 51938.0
1.970000 62500.0
1.980000 60074.0
1.990000 76452.0
2.000000 80656.0
2.010000 94065.0
2.020000 98533.0
2.030000 139876.0
2.040000 160801.0
2.050000 237072.0
2.060000 355335.0
2.070000 698896.0
2.080000 1041829.0
2.090000 1515115.0
2.100000 1549278.0
2.110000 1524484.0
2.120000 1546541.0
2.130000 1402803.0
2.140000 814326.0
2.150000 448766.0
2.160000 191932.0
2.170000 124962.0
2.180000 72039.0
2.190000 49729.0
2.200000 29550.0
2.210000 25154.0
2.220000 16256.0
2.230000 12388.0
2.240000 9643.0
2.250000 8930.0
2.260000 6384.0
2.270000 5960.0
2.280000 5242.0
2.290000 4624.0
2.300000 3733.0
2.310000 3869.0
2.320000 3215.0
2.330000 2683.0
2.340000 2116.0
2.350000 2034.0
2.360000 1490.0
2.370000 1225.0
2.380000 1136.0
2.390000 1149.0
2.400000 853.0
2.410000 924.0
2.420000 876.0
2.430000 801.0
2.440000 724.0
2.450000 835.0
2.460000 681.0
2.470000 702.0
2.480000 676.0
2.490000 702.0
2.500000 557.0
2.510000 471.0
2.520000 441.0
2.530000 538.0
2.540000 369.0
2.550000 384.0
2.560000 380.0
2.570000 424.0
2.580000 335.0
2.590000 437.0
2.600000 384.0
2.610000 392.0
2.620000 357.0
2.630000 480.0
2.640000 404.0
2.650000 369.0
2.660000 357.0
2.670000 388.0
2.680000 353.0
2.690000 306.0
2.700000 313.0
2.710000 313.0
2.720000 282.0
2.730000 282.0
2.740000 306.0
2.750000 313.0
2.760000 262.0
2.770000 269.0
2.780000 286.0
2.790000 331.0
2.800000 262.0
2.810000 335.0
2.820000 262.0
2.830000 286.0
2.840000 234.0
2.850000 282.0
2.860000 246.0
2.870000 276.0
2.880000 234.0
2.890000 262.0
2.900000 219.0
2.910000 225.0
2.920000 228.0
2.930000 246.0
2.940000 199.0
2.950000 225.0
2.960000 237.0
2.970000 250.0
2.980000 213.0
2.990000 225.0
3.000000 202.0
3.010000 219.0
3.020000 188.0
3.030000 253.0
3.040000 213.0
3.050000 177.0
3.060000 177.0
3.070000 188.0
3.080000 185.0
3.090000 159.0
3.100000 156.0
3.110000 199.0
3.120000 159.0
3.130000 166.0
3.140000 156.0
3.150000 188.0
3.160000 139.0
3.170000 137.0
3.180000 154.0
3.190000 161.0
3.200000 121.0
3.210000 144.0
3.220000 102.0
3.230000 142.0
3.240000 121.0
3.250000 102.0
3.260000 108.0
3.270000 130.0
3.280000 137.0
3.290000 130.0
3.300000 135.0
3.310000 108.0
3.320000 94.0
3.330000 114.0
3.340000 88.0
3.350000 100.0
3.360000 96.0
3.370000 117.0
3.380000 85.0
3.390000 88.0
3.400000 88.0
3.410000 106.0
3.420000 94.0
3.430000 83.0
3.440000 90.0
3.450000 106.0
3.460000 79.0
3.470000 92.0
3.480000 76.0
3.490000 71.0
3.500000 77.0
3.510000 90.0
3.520000 77.0
3.530000 62.0
3.540000 71.0
3.550000 77.0
3.560000 76.0
3.570000 98.0
3.580000 100.0
3.590000 119.0
3.600000 102.0
3.610000 128.0
3.620000 108.0
3.630000 130.0
3.640000 96.0
3.650000 117.0
3.660000 112.0
3.670000 112.0
3.680000 83.0
3.690000 90.0
3.700000 96.0
3.710000 117.0
3.720000 121.0
3.730000 174.0
3.740000 219.0
3.750000 253.0
3.760000 246.0
3.770000 365.0
3.780000 428.0
3.790000 595.0
3.800000 756.0
3.810000 912.0
3.820000 980.0
3.830000 1176.0
3.840000 1467.0
3.850000 2025.0
3.860000 2470.0
3.870000 3636.0
3.880000 6480.0
3.890000 14161.0
3.900000 23808.0
3.910000 42354.0
3.920000 51257.0
3.930000 63202.0
3.940000 54803.0
3.950000 46010.0
3.960000 28090.0
3.970000 17345.0
3.980000 8742.0
3.990000 6115.0
4.000000 3660.0
4.010000 2490.0
4.020000 1640.0
4.030000 1459.0
4.040000 1089.0
4.050000 906.0
4.060000 713.0
4.070000 713.0
4.080000 506.0
4.090000 480.0
4.100000 484.0
4.110000 462.0
4.120000 420.0
4.130000 420.0
4.140000 369.0
4.150000 380.0
4.160000 313.0
4.170000 286.0
4.180000 269.0
4.190000 256.0
4.200000 202.0
4.210000 207.0
4.220000 154.0
4.230000 166.0
4.240000 114.0
4.250000 119.0
4.260000 130.0
4.270000 142.0
4.280000 114.0
4.290000 137.0
4.300000 112.0
4.310000 123.0
4.320000 108.0
4.330000 128.0
4.340000 110.0
4.350000 110.0
4.360000 117.0
4.370000 102.0
4.380000 94.0
4.390000 96.0
4.400000 88.0
4.410000 96.0
4.420000 64.0
4.430000 61.0
4.440000 56.0
4.450000 67.0
4.460000 66.0
4.470000 69.0
4.480000 71.0
4.490000 61.0
4.500000 55.0
4.510000 71.0
4.520000 36.0
4.530000 69.0
4.540000 64.0
4.550000 59.0
4.560000 52.0
4.570000 64.0
4.580000 45.0
4.590000 52.0
4.600000 52.0
4.610000 53.0
4.620000 32.0
4.630000 48.0
4.640000 42.0
4.650000 38.0
4.660000 44.0
4.670000 50.0
4.680000 44.0
4.690000 56.0
4.700000 46.0
4.710000 58.0
4.720000 37.0
4.730000 40.0
4.740000 59.0
4.750000 44.0
4.760000 40.0
4.770000 45.0
4.780000 42.0
4.790000 41.0
4.800000 36.0
4.810000 29.0
4.820000 29.0
4.830000 34.0
4.840000 23.0
4.850000 35.0
4.860000 30.0
4.870000 37.0
4.880000 28.0
4.890000 35.0
4.900000 29.0
4.910000 40.0
4.920000 37.0
4.930000 28.0
4.940000 38.0
4.950000 36.0
4.960000 36.0
4.970000 32.0
4.980000 27.0
4.990000 36.0
5.000000 26.0
5.010000 27.0
5.020000 24.0
5.030000 35.0
5.040000 42.0
5.050000 24.0
5.060000 32.0
5.070000 37.0
5.080000 34.0
5.090000 29.0
5.100000 38.0
5.110000 34.0
5.120000 27.0
5.130000 50.0
5.140000 26.0
5.150000 30.0
5.160000 18.0
5.170000 28.0
5.180000 19.0
5.190000 17.0
5.200000 19.0
5.210000 31.0
5.220000 13.0
5.230000 30.0
5.240000 20.0
5.250000 28.0
5.260000 41.0
5.270000 29.0
5.280000 27.0
5.290000 28.0
5.300000 32.0
5.310000 36.0
5.320000 20.0
5.330000 34.0
5.340000 23.0
5.350000 23.0
5.360000 27.0
5.370000 30.0
5.380000 24.0
5.390000 16.0
5.400000 22.0
5.410000 21.0
5.420000 21.0
5.430000 26.0
5.440000 31.0
5.450000 32.0
5.460000 34.0
5.470000 24.0
5.480000 31.0
5.490000 40.0
5.500000 25.0
5.510000 38.0
5.520000 25.0
5.530000 35.0
5.540000 25.0
5.550000 22.0
5.560000 32.0
5.570000 35.0
5.580000 40.0
5.590000 38.0
5.600000 58.0
5.610000 46.0
5.620000 38.0
5.630000 67.0
5.640000 66.0
5.650000 83.0
5.660000 102.0
5.670000 123.0
5.680000 121.0
5.690000 159.0
5.700000 149.0
5.710000 172.0
5.720000 182.0
5.730000 272.0
5.740000 449.0
5.750000 973.0
5.760000 1529.0
5.770000 2611.0
5.780000 3058.0
5.790000 3648.0
5.800000 3238.0
5.810000 2746.0
5.820000 1815.0
5.830000 1325.0
5.840000 767.0
5.850000 529.0
5.860000 282.0
5.870000 182.0
5.880000 108.0
5.890000 98.0
5.900000 61.0
5.910000 45.0
5.920000 34.0
5.930000 36.0
5.940000 28.0
5.950000 16.0
5.960000 16.0
5.970000 20.0
5.980000 20.0
5.990000 11.0
6.000000 16.0
6.010000 10.0
6.020000 11.0
6.030000 3.0
6.040000 15.0
6.050000 5.0
6.060000 5.0
6.070000 6.0
6.080000 9.0
6.090000 5.0
6.100000 8.0
6.110000 11.0
6.120000 9.0
6.130000 7.0
6.140000 11.0
6.150000 6.0
6.160000 6.0
6.170000 6.0
6.180000 3.0
6.190000 4.0
6.200000 7.0
6.210000 11.0
6.220000 3.0
6.230000 7.0
6.240000 7.0
6.250000 11.0
6.260000 10.0
6.270000 7.0
6.280000 5.0
6.290000 11.0
6.300000 8.0
6.310000 14.0
6.320000 3.0
6.330000 6.0
6.340000 4.0
6.350000 12.0
6.360000 7.0
6.370000 3.0
6.380000 6.0
6.390000 10.0
6.400000 8.0
6.410000 10.0
6.420000 7.0
6.430000 8.0
6.440000 10.0
6.450000 7.0
6.460000 9.0
6.470000 7.0
6.480000 6.0
6.490000 6.0
6.500000 9.0
6.510000 7.0
6.520000 5.0
6.530000 7.0
6.540000 8.0
6.550000 1.0
6.560000 4.0
6.570000 6.0
6.580000 7.0
6.590000 5.0
6.600000 10.0
6.610000 5.0
6.620000 13.0
6.630000 2.0
6.640000 15.0
6.650000 9.0
6.660000 8.0
6.670000 10.0
6.680000 7.0
6.690000 8.0
6.700000 8.0
6.710000 6.0
6.720000 5.0
6.730000 6.0
6.740000 6.0
6.750000 1.0
6.760000 5.0
6.770000 7.0
6.780000 4.0
6.790000 7.0
6.800000 5.0
6.810000 8.0
6.820000 7.0
6.830000 7.0
6.840000 10.0
6.850000 8.0
6.860000 8.0
6.870000 3.0
6.880000 7.0
6.890000 7.0
6.900000 5.0
6.910000 8.0
6.920000 5.0
6.930000 5.0
6.940000 3.0
6.950000 10.0
6.960000 6.0
6.970000 10.0
6.980000 1.0
6.990000 4.0
7.000000 4.0
7.010000 6.0
7.020000 9.0
7.030000 4.0
7.040000 5.0
7.050000 7.0
7.060000 6.0
7.070000 6.0
7.080000 5.0
7.090000 2.0
7.100000 2.0
7.110000 1.0
7.120000 4.0
7.130000 5.0
7.140000 3.0
7.150000 5.0
7.160000 4.0
7.170000 10.0
7.180000 5.0
7.190000 5.0
7.200000 4.0
7.210000 4.0
7.220000 6.0
7.230000 1.0
7.240000 8.0
7.250000 8.0
7.260000 5.0
7.270000 3.0
7.280000 6.0
7.290000 4.0
7.300000 6.0
7.310000 5.0
7.320000 10.0
7.330000 6.0
7.340000 9.0
7.350000 6.0
7.360000 4.0
7.370000 7.0
7.380000 8.0
7.390000 7.0
7.400000 13.0
7.410000 12.0
7.420000 6.0
7.430000 7.0
7.440000 9.0
7.450000 12.0
7.460000 9.0
7.470000 4.0
7.480000 7.0
7.490000 22.0
7.500000 8.0
7.510000 20.0
7.520000 10.0
7.530000 22.0
7.540000 24.0
7.550000 36.0
7.560000 23.0
7.570000 38.0
7.580000 42.0
7.590000 50.0
7.600000 72.0
7.610000 130.0
7.620000 228.0
7.630000 396.0
7.640000 713.0
7.650000 1018.0
7.660000 1063.0
7.670000 1176.0
7.680000 949.0
7.690000 818.0
7.700000 590.0
7.710000 433.0
7.720000 306.0
7.730000 246.0
7.740000 149.0
7.750000 114.0
7.760000 81.0
7.770000 71.0
7.780000 44.0
7.790000 41.0
7.800000 41.0
7.810000 26.0
7.820000 22.0
7.830000 26.0
7.840000 13.0
7.850000 17.0
7.860000 19.0
7.870000 16.0
7.880000 12.0
7.890000 12.0
7.900000 8.0
7.910000 6.0
7.920000 10.0
7.930000 8.0
7.940000 9.0
7.950000 5.0
7.960000 10.0
7.970000 6.0
7.980000 5.0
7.990000 8.0
8.000000 3.0
8.010000 3.0
8.020000 6.0
8.030000 4.0
8.040000 6.0
8.050000 6.0
8.060000 3.0
8.070000 10.0
8.080000 7.0
8.090000 4.0
8.100000 4.0
8.110000 5.0
8.120000 8.0
8.130000 4.0
8.140000 5.0
8.150000 5.0
8.160000 3.0
8.170000 5.0
8.180000 10.0
8.190000 4.0
8.200000 4.0
8.210000 7.0
8.220000 5.0
8.230000 5.0
8.240000 5.0
8.250000 5.0
8.260000 5.0
8.270000 2.0
8.280000 6.0
8.290000 3.0
8.300000 2.0
8.310000 7.0
8.320000 4.0
8.330000 7.0
8.340000 3.0
8.350000 4.0
8.360000 5.0
8.370000 5.0
8.380000 1.0
8.390000 5.0
8.400000 4.0
8.410000 5.0
8.420000 7.0
8.430000 6.0
8.440000 6.0
8.450000 0.0
8.460000 1.0
8.470000 2.0
8.480000 1.0
8.490000 3.0
8.500000 0.0
8.510000 3.0
8.520000 3.0
8.530000 3.0
8.540000 5.0
8.550000 4.0
8.560000 5.0
8.570000 1.0
8.580000 5.0
8.590000 3.0
8.600000 3.0
8.610000 3.0
8.620000 3.0
8.630000 3.0
8.640000 3.0
8.650000 4.0
8.660000 5.0
8.670000 6.0
8.680000 5.0
8.690000 4.0
8.700000 3.0
8.710000 5.0
8.720000 2.0
8.730000 5.0
8.740000 1.0
8.750000 2.0
8.760000 1.0
8.770000 3.0
8.780000 5.0
8.790000 1.0
8.800000 4.0
8.810000 4.0
8.820000 2.0
8.830000 5.0
8.840000 3.0
8.850000 4.0
8.860000 3.0
8.870000 3.0
8.880000 4.0
8.890000 2.0
8.900000 4.0
8.910000 4.0
8.920000 1.0
8.930000 3.0
8.940000 1.0
8.950000 2.0
8.960000 4.0
8.970000 0.0
8.980000 4.0
8.990000 4.0
9.000000 1.0
9.010000 5.0
9.020000 4.0
9.030000 3.0
9.040000 3.0
9.050000 4.0
9.060000 3.0
9.070000 3.0
9.080000 2.0
9.090000 7.0
9.100000 5.0
9.110000 3.0
9.120000 4.0
9.130000 3.0
9.140000 3.0
9.150000 2.0
9.160000 0.0
9.170000 1.0
9.180000 5.0
9.190000 5.0
9.200000 1.0
9.210000 0.0
9.220000 4.0
9.230000 1.0
9.240000 5.0
9.250000 2.0
9.260000 4.0
9.270000 3.0
9.280000 2.0
9.290000 2.0
9.300000 2.0
9.310000 2.0
9.320000 3.0
9.330000 2.0
9.340000 5.0
9.350000 1.0
9.360000 0.0
9.370000 3.0
9.380000 4.0
9.390000 4.0
9.400000 1.0
9.410000 2.0
9.420000 4.0
9.430000 4.0
9.440000 3.0
9.450000 5.0
9.460000 1.0
9.470000 3.0
9.480000 3.0
9.490000 2.0
9.500000 7.0
9.510000 6.0
9.520000 9.0
9.530000 15.0
9.540000 12.0
9.550000 17.0
9.560000 17.0
9.570000 16.0
9.580000 14.0
9.590000 5.0
9.600000 11.0
9.610000 10.0
9.620000 6.0
9.630000 6.0
9.640000 2.0
9.650000 4.0
9.660000 6.0
9.670000 5.0
9.680000 3.0
9.690000 8.0
9.700000 1.0
9.710000 3.0
9.720000 0.0
9.730000 4.0
9.740000 2.0
9.750000 2.0
9.760000 2.0
9.770000 4.0
9.780000 4.0
9.790000 1.0
9.800000 3.0
9.810000 3.0
9.820000 2.0
9.830000 4.0
9.840000 0.0
9.850000 2.0
9.860000 5.0
9.870000 5.0
9.880000 2.0
9.890000 2.0
9.900000 7.0
9.910000 2.0
9.920000 4.0
9.930000 2.0
9.940000 0.0
9.950000 3.0
9.960000 5.0
9.970000 2.0
9.980000 2.0
9.990000 2.0
10.000000 2.0
10.010000 5.0
10.020000 1.0
10.030000 3.0
10.040000 3.0
10.050000 1.0
10.060000 2.0
10.070000 0.0
10.080000 2.0
10.090000 1.0
10.100000 2.0
10.110000 9.0
10.120000 2.0
10.130000 2.0
10.140000 1.0
10.150000 0.0
10.160000 1.0
10.170000 2.0
10.180000 2.0
10.190000 1.0
10.200000 1.0
10.210000 1.0
10.220000 2.0
10.230000 3.0
10.240000 0.0
10.250000 0.0
10.260000 3.0
10.270000 3.0
10.280000 2.0
10.290000 1.0
10.300000 2.0
10.310000 3.0
10.320000 0.0
10.330000 2.0
10.340000 2.0
10.350000 4.0
10.360000 3.0
10.370000 1.0
10.380000 3.0
10.390000 4.0
10.400000 2.0
10.410000 0.0
10.420000 0.0
10.430000 1.0
10.440000 1.0
10.450000 2.0
10.460000 3.0
10.470000 2.0
10.480000 3.0
10.490000 1.0
10.500000 3.0
10.510000 2.0
10.520000 1.0
10.530000 0.0
10.540000 1.0
10.550000 1.0
10.560000 1.0
10.570000 2.0
10.580000 1.0
10.590000 5.0
10.600000 0.0
10.610000 2.0
10.620000 0.0
10.630000 1.0
10.640000 4.0
10.650000 2.0
10.660000 0.0
10.670000 2.0
10.680000 1.0
10.690000 3.0
10.700000 2.0
10.710000 4.0
10.720000 4.0
10.730000 0.0
10.740000 1.0
10.750000 3.0
10.760000 0.0
10.770000 1.0
10.780000 5.0
10.790000 1.0
10.800000 2.0
10.810000 1.0
10.820000 3.0
10.830000 0.0
10.840000 3.0
10.850000 5.0
10.860000 5.0
10.870000 2.0
10.880000 0.0
10.890000 0.0
10.900000 2.0
10.910000 2.0
10.920000 2.0
10.930000 1.0
10.940000 1.0
10.950000 4.0
10.960000 1.0
10.970000 0.0
10.980000 3.0
10.990000 1.0
11.000000 2.0
11.010000 2.0
11.020000 2.0
11.030000 0.0
11.040000 1.0
11.050000 2.0
11.060000 2.0
11.070000 2.0
11.080000 5.0
11.090000 1.0
11.100000 3.0
11.110000 0.0
11.120000 3.0
11.130000 4.0
11.140000 1.0
11.150000 4.0
11.160000 1.0
11.170000 3.0
11.180000 1.0
11.190000 0.0
11.200000 1.0
11.210000 1.0
11.220000 1.0
11.230000 1.0
11.240000 2.0
11.250000 2.0
11.260000 2.0
11.270000 3.0
11.280000 3.0
11.290000 3.0
11.300000 2.0
11.310000 1.0
11.320000 5.0
11.330000 2.0
11.340000 1.0
11.350000 3.0
11.360000 5.0
11.370000 3.0
11.380000 3.0
11.390000 7.0
11.400000 7.0
11.410000 9.0
11.420000 7.0
11.430000 12.0
11.440000 14.0
11.450000 9.0
11.460000 14.0
11.470000 11.0
11.480000 7.0
11.490000 4.0
11.500000 8.0
11.510000 10.0
11.520000 5.0
11.530000 3.0
11.540000 6.0
11.550000 2.0
11.560000 1.0
11.570000 1.0
11.580000 1.0
11.590000 0.0
11.600000 2.0
11.610000 3.0
11.620000 2.0
11.630000 4.0
11.640000 2.0
11.650000 2.0
11.660000 4.0
11.670000 4.0
11.680000 6.0
11.690000 1.0
11.700000 2.0
11.710000 5.0
11.720000 1.0
11.730000 4.0
11.740000 2.0
11.750000 1.0
11.760000 1.0
11.770000 5.0
11.780000 4.0
11.790000 1.0
11.800000 1.0
11.810000 1.0
11.820000 0.0
11.830000 1.0
11.840000 3.0
11.850000 2.0
11.860000 3.0
11.870000 0.0
11.880000 0.0
11.890000 1.0
11.900000 4.0
11.910000 2.0
11.920000 0.0
11.930000 1.0
11.940000 1.0
11.950000 0.0
11.960000 1.0
11.970000 0.0
11.980000 0.0
11.990000 3.0
