0.00500 38450232.0
0.01500 41418776.0
0.02500 31602648.0
0.03500 18604764.0
0.04500 9857566.0
0.05500 5623702.0
0.06500 4856101.0
0.07500 5371287.0
0.08500 5944914.0
0.09500 6718626.0
0.10500 7394946.0
0.11500 8005877.0
0.12500 8798314.0
0.13500 9255285.0
0.14500 10014519.0
0.15500 10796975.0
0.16500 11317669.0
0.17500 12097599.0
0.18500 12528930.0
0.19500 13191194.0
0.20500 14033275.0
0.21500 14427535.0
0.22500 15162552.0
0.23500 15647816.0
0.24500 16288997.0
0.25500 17135852.0
0.26500 17524736.0
0.27500 18253230.0
0.28500 18854608.0
0.29500 19293140.0
0.30500 20142900.0
0.31500 20571230.0
0.32500 21201582.0
0.33500 21696426.0
0.34500 21951154.0
0.35500 22803462.0
0.36500 23148108.0
0.37500 23584396.0
0.38500 24185064.0
0.39500 24224480.0
0.40500 25111490.0
0.41500 25509792.0
0.42500 25754266.0
0.43500 26369162.0
0.44500 26549444.0
0.45500 27128244.0
0.46500 27438228.0
0.47500 27542996.0
0.48500 28201558.0
0.49500 28223452.0
0.50500 28681204.0
0.51500 29120712.0
0.52500 29148418.0
0.53500 29710352.0
0.54500 29792604.0
0.55500 30141940.0
0.56500 30588784.0
0.57500 30368632.0
0.58500 31008908.0
0.59500 31085572.0
0.60500 30925576.0
0.61500 31253552.0
0.62500 30713424.0
0.63500 30900332.0
0.64500 30685672.0
0.65500 30200676.0
0.66500 29795324.0
0.67500 28406836.0
0.68500 26838256.0
0.69500 24287062.0
0.70500 21046728.0
0.71500 18198408.0
0.72500 15270001.0
0.73500 13043338.0
0.74500 11378252.0
0.75500 9866851.0
0.76500 8848272.0
0.77500 7895736.0
0.78500 7129106.0
0.79500 6549425.0
0.80500 5952665.0
0.81500 5522618.0
0.82500 5087517.0
0.83500 4680266.0
0.84500 4379046.0
0.85500 4054904.0
0.86500 3798362.0
0.87500 3543334.0
0.88500 3295525.0
0.89500 3124802.0
0.90500 2919987.0
0.91500 2761928.0
0.92500 2608446.0
0.93500 2449435.0
0.94500 2326007.0
0.95500 2193858.0
0.96500 2072516.0
0.97500 1983731.0
0.98500 1886677.0
0.99500 1796466.0
1.00500 1730798.0
1.01500 1639977.0
1.02500 1575944.0
1.03500 1503088.0
1.04500 1440499.0
1.05500 1363047.0
1.06500 1301784.0
1.07500 1251516.0
1.08500 1199048.0
1.09500 1168029.0
1.10500 1138018.0
1.11500 1092708.0
1.12500 1069375.0
1.13500 1016964.0
1.14500 984133.0
1.15500 945447.0
1.16500 891617.0
1.17500 860540.0
1.18500 821515.0
1.19500 779654.0
1.20500 759145.0
1.21500 730196.0
1.22500 706782.0
1.23500 698306.0
1.24500 681578.0
1.25500 658741.0
1.26500 650975.0
1.27500 631364.0
1.28500 608830.0
1.29500 596659.0
1.30500 579468.0
1.31500 555757.0
1.32500 538568.0
1.33500 519671.0
1.34500 493018.0
1.35500 482227.0
1.36500 471473.0
1.37500 451975.0
1.38500 448656.0
1.39500 448501.0
1.40500 429757.0
1.41500 418919.0
1.42500 414173.0
1.43500 403240.0
1.44500 393801.0
1.45500 395106.0
1.46500 383014.0
1.47500 365882.0
1.48500 368145.0
1.49500 360900.0
1.50500 340282.0
1.51500 337301.0
1.52500 334919.0
1.53500 326834.0
1.54500 330078.0
1.55500 331779.0
1.56500 318607.0
1.57500 307550.0
1.58500 307544.0
1.59500 299950.0
1.60500 289174.0
1.61500 295977.0
1.62500 298783.0
1.63500 292560.0
1.64500 295695.0
1.65500 301074.0
1.66500 291986.0
1.67500 294560.0
1.68500 306135.0
1.69500 303778.0
1.70500 292705.0
1.71500 301636.0
1.72500 308125.0
1.73500 304627.0
1.74500 312465.0
1.75500 324041.0
1.76500 322429.0
1.77500 323320.0
1.78500 349062.0
1.79500 358510.0
1.80500 355697.0
1.81500 376320.0
1.82500 399520.0
1.83500 411568.0
1.84500 450689.0
1.85500 514212.0
1.86500 556313.0
1.87500 613599.0
1.88500 728533.0
1.89500 860786.0
1.90500 1088037.0
1.91500 1514354.0
1.92500 2140519.0
1.93500 3243356.0
1.94500 5460046.0
1.95500 8946822.0
1.96500 12417938.0
1.97500 13779409.0
1.98500 12109190.0
1.99500 8495901.0
2.00500 4754198.0
2.01500 2388983.0
2.02500 1520292.0
2.03500 1106162.0
2.04500 782046.0
2.05500 595877.0
2.06500 493693.0
2.07500 395085.0
2.08500 319820.0
2.09500 275760.0
2.10500 239902.0
2.11500 198854.0
2.12500 176910.0
2.13500 160454.0
2.14500 141860.0
2.15500 129586.0
2.16500 121072.0
2.17500 109815.0
2.18500 98949.0
2.19500 92853.0
2.20500 86467.0
2.21500 78551.0
2.22500 73903.0
2.23500 71268.0
2.24500 65943.0
2.25500 61218.0
2.26500 60318.0
2.27500 57348.0
2.28500 53469.0
2.29500 51703.0
2.30500 50311.0
2.31500 47174.0
2.32500 43093.0
2.33500 41082.0
2.34500 39593.0
2.35500 37208.0
2.36500 35900.0
2.37500 35256.0
2.38500 33569.0
2.39500 32019.0
2.40500 31894.0
2.41500 30592.0
2.42500 28404.0
2.43500 27789.0
2.44500 27007.0
2.45500 25996.0
2.46500 24290.0
2.47500 24547.0
2.48500 23889.0
2.49500 22342.0
2.50500 22063.0
2.51500 22418.0
2.52500 21166.0
2.53500 19705.0
2.54500 19531.0
2.55500 19009.0
2.56500 17801.0
2.57500 17811.0
2.58500 17767.0
2.59500 16837.0
2.60500 16053.0
2.61500 16185.0
2.62500 16257.0
2.63500 15419.0
2.64500 15287.0
2.65500 15625.0
2.66500 15518.0
2.67500 14451.0
2.68500 13991.0
2.69500 13813.0
2.70500 13409.0
2.71500 12355.0
2.72500 12261.0
2.73500 11896.0
2.74500 11217.0
2.75500 11246.0
2.76500 11619.0
2.77500 11088.0
2.78500 10331.0
2.79500 10343.0
2.80500 10344.0
2.81500 9847.0
2.82500 10016.0
2.83500 10245.0
2.84500 9822.0
2.85500 8874.0
2.86500 8896.0
2.87500 8629.0
2.88500 7886.0
2.89500 7879.0
2.90500 8233.0
2.91500 7920.0
2.92500 7535.0
2.93500 7567.0
2.94500 7519.0
2.95500 7149.0
2.96500 7030.0
2.97500 7348.0
2.98500 7300.0
2.99500 6633.0
3.00500 6469.0
3.01500 6296.0
3.02500 5849.0
3.03500 5415.0
3.04500 5390.0
3.05500 5296.0
3.06500 5209.0
3.07500 5283.0
3.08500 5421.0
3.09500 5318.0
3.10500 5088.0
3.11500 5208.0
3.12500 5050.0
3.13500 4941.0
3.14500 4776.0
3.15500 4791.0
3.16500 4798.0
3.17500 4507.0
3.18500 4221.0
3.19500 4179.0
3.20500 3994.0
3.21500 3783.0
3.22500 4074.0
3.23500 4052.0
3.24500 3834.0
3.25500 3602.0
3.26500 3843.0
3.27500 3694.0
3.28500 3485.0
3.29500 3422.0
3.30500 3383.0
3.31500 3299.0
3.32500 3181.0
3.33500 3194.0
3.34500 3147.0
3.35500 2914.0
3.36500 2798.0
3.37500 2749.0
3.38500 2632.0
3.39500 2715.0
3.40500 2723.0
3.41500 2692.0
3.42500 2719.0
3.43500 2600.0
3.44500 2796.0
3.45500 2875.0
3.46500 2461.0
3.47500 2522.0
3.48500 2604.0
3.49500 2339.0
3.50500 2417.0
3.51500 2480.0
3.52500 2434.0
3.53500 2385.0
3.54500 2322.0
3.55500 2317.0
3.56500 2177.0
3.57500 2265.0
3.58500 2279.0
3.59500 2307.0
3.60500 2533.0
3.61500 2631.0
3.62500 3014.0
3.63500 3161.0
3.64500 2969.0
3.65500 3146.0
3.66500 3376.0
3.67500 3715.0
3.68500 4776.0
3.69500 6449.0
3.70500 8233.0
3.71500 11029.0
3.72500 17477.0
3.73500 29747.0
3.74500 44137.0
3.75500 53602.0
3.76500 51474.0
3.77500 40596.0
3.78500 26090.0
3.79500 15792.0
3.80500 10710.0
3.81500 8167.0
3.82500 6496.0
3.83500 5249.0
3.84500 4323.0
3.85500 3758.0
3.86500 3236.0
3.87500 2905.0
3.88500 2610.0
3.89500 2336.0
3.90500 2350.0
3.91500 2275.0
3.92500 2158.0
3.93500 1889.0
3.94500 1852.0
3.95500 1726.0
3.96500 1631.0
3.97500 1588.0
3.98500 1626.0
3.99500 1686.0
4.00500 1480.0
4.01500 1430.0
4.02500 1480.0
4.03500 1555.0
4.04500 1502.0
4.05500 1505.0
4.06500 1562.0
4.07500 1404.0
4.08500 1350.0
4.09500 1194.0
4.10500 1228.0
4.11500 1362.0
4.12500 1258.0
4.13500 1168.0
4.14500 1084.0
4.15500 1029.0
4.16500 993.0
4.17500 935.0
4.18500 876.0
4.19500 924.0
4.20500 996.0
4.21500 1003.0
4.22500 969.0
4.23500 833.0
4.24500 925.0
4.25500 965.0
4.26500 866.0
4.27500 834.0
4.28500 936.0
4.29500 928.0
4.30500 959.0
4.31500 923.0
4.32500 947.0
4.33500 988.0
4.34500 910.0
4.35500 849.0
4.36500 804.0
4.37500 739.0
4.38500 1016.0
4.39500 874.0
4.40500 880.0
4.41500 905.0
4.42500 889.0
4.43500 823.0
4.44500 777.0
4.45500 841.0
4.46500 877.0
4.47500 771.0
4.48500 709.0
4.49500 710.0
4.50500 694.0
4.51500 824.0
4.52500 683.0
4.53500 665.0
4.54500 603.0
4.55500 605.0
4.56500 658.0
4.57500 599.0
4.58500 469.0
4.59500 543.0
4.60500 544.0
4.61500 601.0
4.62500 505.0
4.63500 536.0
4.64500 517.0
4.65500 603.0
4.66500 556.0
4.67500 492.0
4.68500 632.0
4.69500 655.0
4.70500 640.0
4.71500 675.0
4.72500 508.0
4.73500 529.0
4.74500 522.0
4.75500 506.0
4.76500 690.0
4.77500 710.0
4.78500 608.0
4.79500 568.0
4.80500 588.0
4.81500 543.0
4.82500 470.0
4.83500 489.0
4.84500 479.0
4.85500 457.0
4.86500 503.0
4.87500 475.0
4.88500 502.0
4.89500 483.0
4.90500 510.0
4.91500 528.0
4.92500 464.0
4.93500 441.0
4.94500 473.0
4.95500 468.0
4.96500 444.0
4.97500 370.0
4.98500 396.0
4.99500 356.0
5.00500 375.0
5.01500 400.0
5.02500 404.0
5.03500 449.0
5.04500 446.0
5.05500 409.0
5.06500 405.0
5.07500 527.0
5.08500 626.0
5.09500 580.0
5.10500 440.0
5.11500 413.0
5.12500 411.0
5.13500 467.0
5.14500 538.0
5.15500 392.0
5.16500 423.0
5.17500 446.0
5.18500 312.0
5.19500 321.0
5.20500 300.0
5.21500 302.0
5.22500 293.0
5.23500 240.0
5.24500 298.0
5.25500 291.0
5.26500 331.0
5.27500 268.0
5.28500 321.0
5.29500 307.0
5.30500 350.0
5.31500 367.0
5.32500 374.0
5.33500 419.0
5.34500 317.0
5.35500 309.0
5.36500 290.0
5.37500 338.0
5.38500 329.0
5.39500 384.0
5.40500 327.0
5.41500 341.0
5.42500 307.0
5.43500 287.0
5.44500 412.0
5.45500 438.0
5.46500 388.0
5.47500 428.0
5.48500 447.0
5.49500 506.0
5.50500 564.0
5.51500 667.0
5.52500 863.0
5.53500 1184.0
5.54500 1782.0
5.55500 2963.0
5.56500 5450.0
5.57500 8524.0
5.58500 11042.0
5.59500 10880.0
5.60500 8821.0
5.61500 6230.0
5.62500 4399.0
5.63500 2891.0
5.64500 2161.0
5.65500 1627.0
5.66500 1324.0
5.67500 942.0
5.68500 717.0
5.69500 558.0
5.70500 533.0
5.71500 441.0
5.72500 373.0
5.73500 357.0
5.74500 375.0
5.75500 368.0
5.76500 403.0
5.77500 379.0
5.78500 384.0
5.79500 387.0
5.80500 411.0
5.81500 420.0
5.82500 258.0
5.83500 251.0
5.84500 294.0
5.85500 263.0
5.86500 243.0
5.87500 263.0
5.88500 285.0
5.89500 273.0
5.90500 311.0
5.91500 241.0
5.92500 213.0
5.93500 173.0
5.94500 165.0
5.95500 153.0
5.96500 169.0
5.97500 141.0
5.98500 164.0
5.99500 168.0
6.00500 168.0
6.01500 138.0
6.02500 214.0
6.03500 245.0
6.04500 232.0
6.05500 227.0
6.06500 205.0
6.07500 168.0
6.08500 183.0
6.09500 213.0
6.10500 224.0
6.11500 205.0
6.12500 200.0
6.13500 201.0
6.14500 244.0
6.15500 207.0
6.16500 197.0
6.17500 239.0
6.18500 236.0
6.19500 215.0
6.20500 207.0
6.21500 237.0
6.22500 201.0
6.23500 232.0
6.24500 187.0
6.25500 206.0
6.26500 243.0
6.27500 271.0
6.28500 207.0
6.29500 273.0
6.30500 224.0
6.31500 253.0
6.32500 236.0
6.33500 221.0
6.34500 194.0
6.35500 250.0
6.36500 229.0
6.37500 198.0
6.38500 231.0
6.39500 213.0
6.40500 228.0
6.41500 201.0
6.42500 207.0
6.43500 196.0
6.44500 172.0
6.45500 199.0
6.46500 170.0
6.47500 157.0
6.48500 157.0
6.49500 151.0
6.50500 154.0
6.51500 153.0
6.52500 172.0
6.53500 154.0
6.54500 160.0
6.55500 221.0
6.56500 195.0
6.57500 186.0
6.58500 195.0
6.59500 173.0
6.60500 201.0
6.61500 160.0
6.62500 168.0
6.63500 214.0
6.64500 257.0
6.65500 287.0
6.66500 292.0
6.67500 218.0
6.68500 207.0
6.69500 203.0
6.70500 161.0
6.71500 158.0
6.72500 175.0
6.73500 133.0
6.74500 221.0
6.75500 194.0
6.76500 203.0
6.77500 246.0
6.78500 219.0
6.79500 224.0
6.80500 219.0
6.81500 255.0
6.82500 297.0
6.83500 393.0
6.84500 488.0
6.85500 338.0
6.86500 422.0
6.87500 406.0
6.88500 307.0
6.89500 352.0
6.90500 362.0
6.91500 261.0
6.92500 302.0
6.93500 231.0
6.94500 204.0
6.95500 292.0
6.96500 302.0
6.97500 299.0
6.98500 254.0
6.99500 258.0
7.00500 263.0
7.01500 167.0
7.02500 218.0
7.03500 226.0
7.04500 212.0
7.05500 201.0
7.06500 241.0
7.07500 262.0
7.08500 243.0
7.09500 190.0
7.10500 187.0
7.11500 201.0
7.12500 252.0
7.13500 197.0
7.14500 195.0
7.15500 193.0
7.16500 203.0
7.17500 163.0
7.18500 210.0
7.19500 170.0
7.20500 209.0
7.21500 185.0
7.22500 156.0
7.23500 168.0
7.24500 125.0
7.25500 197.0
7.26500 146.0
7.27500 181.0
7.28500 152.0
7.29500 146.0
7.30500 151.0
7.31500 197.0
7.32500 211.0
7.33500 234.0
7.34500 274.0
7.35500 295.0
7.36500 322.0
7.37500 345.0
7.38500 345.0
7.39500 326.0
7.40500 307.0
7.41500 317.0
7.42500 333.0
7.43500 300.0
7.44500 351.0
7.45500 282.0
7.46500 253.0
7.47500 254.0
7.48500 231.0
7.49500 218.0
7.50500 186.0
7.51500 285.0
7.52500 295.0
7.53500 275.0
7.54500 286.0
7.55500 185.0
7.56500 168.0
7.57500 135.0
7.58500 110.0
7.59500 110.0
7.60500 104.0
7.61500 109.0
7.62500 89.0
7.63500 93.0
7.64500 103.0
7.65500 93.0
7.66500 93.0
7.67500 74.0
7.68500 105.0
7.69500 84.0
7.70500 96.0
7.71500 85.0
7.72500 154.0
7.73500 97.0
7.74500 133.0
7.75500 144.0
7.76500 132.0
7.77500 156.0
7.78500 153.0
7.79500 139.0
7.80500 178.0
7.81500 156.0
7.82500 122.0
7.83500 152.0
7.84500 120.0
7.85500 169.0
7.86500 117.0
7.87500 83.0
7.88500 75.0
7.89500 73.0
7.90500 61.0
7.91500 88.0
7.92500 59.0
7.93500 66.0
7.94500 87.0
7.95500 88.0
7.96500 72.0
7.97500 80.0
7.98500 84.0
7.99500 108.0
8.00500 92.0
8.01500 79.0
8.02500 95.0
8.03500 80.0
8.04500 83.0
8.05500 87.0
8.06500 100.0
8.07500 70.0
8.08500 100.0
8.09500 86.0
8.10500 116.0
8.11500 91.0
8.12500 92.0
8.13500 78.0
8.14500 77.0
8.15500 60.0
8.16500 126.0
8.17500 109.0
8.18500 77.0
8.19500 106.0
8.20500 70.0
8.21500 79.0
8.22500 134.0
8.23500 137.0
8.24500 140.0
8.25500 179.0
8.26500 215.0
8.27500 153.0
8.28500 207.0
8.29500 155.0
8.30500 192.0
8.31500 154.0
8.32500 219.0
8.33500 128.0
8.34500 156.0
8.35500 124.0
8.36500 136.0
8.37500 156.0
8.38500 179.0
8.39500 187.0
8.40500 178.0
8.41500 182.0
8.42500 122.0
8.43500 235.0
8.44500 185.0
8.45500 186.0
8.46500 116.0
8.47500 124.0
8.48500 127.0
8.49500 99.0
8.50500 118.0
8.51500 103.0
8.52500 110.0
8.53500 134.0
8.54500 112.0
8.55500 149.0
8.56500 99.0
8.57500 128.0
8.58500 85.0
8.59500 126.0
8.60500 108.0
8.61500 105.0
8.62500 140.0
8.63500 156.0
8.64500 110.0
8.65500 178.0
8.66500 168.0
8.67500 154.0
8.68500 243.0
8.69500 183.0
8.70500 260.0
8.71500 208.0
8.72500 212.0
8.73500 229.0
8.74500 200.0
8.75500 120.0
8.76500 156.0
8.77500 193.0
8.78500 181.0
8.79500 170.0
8.80500 167.0
8.81500 132.0
8.82500 166.0
8.83500 153.0
8.84500 194.0
8.85500 178.0
8.86500 137.0
8.87500 143.0
8.88500 158.0
8.89500 169.0
8.90500 145.0
8.91500 133.0
8.92500 130.0
8.93500 130.0
8.94500 175.0
8.95500 159.0
8.96500 216.0
8.97500 166.0
8.98500 167.0
8.99500 180.0
9.00500 160.0
9.01500 249.0
9.02500 233.0
9.03500 156.0
9.04500 157.0
9.05500 206.0
9.06500 175.0
9.07500 129.0
9.08500 133.0
9.09500 164.0
9.10500 112.0
9.11500 138.0
9.12500 175.0
9.13500 202.0
9.14500 219.0
9.15500 172.0
9.16500 194.0
9.17500 163.0
9.18500 175.0
9.19500 166.0
9.20500 238.0
9.21500 230.0
9.22500 291.0
9.23500 200.0
9.24500 218.0
9.25500 181.0
9.26500 189.0
9.27500 171.0
9.28500 189.0
9.29500 161.0
9.30500 202.0
9.31500 249.0
9.32500 227.0
9.33500 187.0
9.34500 210.0
9.35500 189.0
9.36500 148.0
9.37500 176.0
9.38500 176.0
9.39500 144.0
9.40500 205.0
9.41500 163.0
9.42500 170.0
9.43500 141.0
9.44500 172.0
9.45500 149.0
9.46500 126.0
9.47500 146.0
9.48500 166.0
9.49500 186.0
9.50500 190.0
9.51500 166.0
9.52500 137.0
9.53500 121.0
9.54500 147.0
9.55500 157.0
9.56500 154.0
9.57500 202.0
9.58500 223.0
9.59500 228.0
9.60500 194.0
9.61500 261.0
9.62500 218.0
9.63500 117.0
9.64500 137.0
9.65500 165.0
9.66500 149.0
9.67500 183.0
9.68500 174.0
9.69500 209.0
9.70500 225.0
9.71500 170.0
9.72500 154.0
9.73500 155.0
9.74500 215.0
9.75500 187.0
9.76500 193.0
9.77500 204.0
9.78500 216.0
9.79500 216.0
9.80500 200.0
9.81500 336.0
9.82500 240.0
9.83500 378.0
9.84500 344.0
9.85500 357.0
9.86500 235.0
9.87500 265.0
9.88500 221.0
9.89500 221.0
9.90500 219.0
9.91500 275.0
9.92500 248.0
9.93500 184.0
9.94500 185.0
9.95500 193.0
9.96500 202.0
9.97500 215.0
9.98500 215.0
9.99500 215.0
10.00500 198.0
10.01500 171.0
10.02500 157.0
10.03500 185.0
10.04500 212.0
10.05500 172.0
10.06500 171.0
10.07500 202.0
10.08500 172.0
10.09500 248.0
10.10500 277.0
10.11500 322.0
10.12500 309.0
10.13500 257.0
10.14500 260.0
10.15500 297.0
10.16500 272.0
10.17500 202.0
10.18500 193.0
10.19500 175.0
10.20500 260.0
10.21500 191.0
10.22500 177.0
10.23500 171.0
10.24500 156.0
10.25500 158.0
10.26500 153.0
10.27500 139.0
10.28500 172.0
10.29500 239.0
10.30500 141.0
10.31500 202.0
10.32500 175.0
10.33500 232.0
10.34500 185.0
10.35500 181.0
10.36500 285.0
10.37500 251.0
10.38500 233.0
10.39500 213.0
10.40500 141.0
10.41500 201.0
10.42500 194.0
10.43500 210.0
10.44500 190.0
10.45500 149.0
10.46500 167.0
10.47500 222.0
10.48500 191.0
10.49500 176.0
10.50500 220.0
10.51500 303.0
10.52500 252.0
10.53500 241.0
10.54500 222.0
10.55500 244.0
10.56500 218.0
10.57500 246.0
10.58500 242.0
10.59500 163.0
10.60500 190.0
10.61500 171.0
10.62500 245.0
10.63500 156.0
10.64500 162.0
10.65500 230.0
10.66500 210.0
10.67500 228.0
10.68500 251.0
10.69500 315.0
10.70500 302.0
10.71500 249.0
10.72500 227.0
10.73500 192.0
10.74500 247.0
10.75500 224.0
10.76500 251.0
10.77500 300.0
10.78500 226.0
10.79500 271.0
10.80500 416.0
10.81500 422.0
10.82500 447.0
10.83500 404.0
10.84500 357.0
10.85500 374.0
10.86500 292.0
10.87500 235.0
10.88500 273.0
10.89500 278.0
10.90500 351.0
10.91500 381.0
10.92500 300.0
10.93500 352.0
10.94500 363.0
10.95500 472.0
10.96500 488.0
10.97500 355.0
10.98500 409.0
10.99500 463.0
11.00500 429.0
11.01500 337.0
11.02500 394.0
11.03500 419.0
11.04500 346.0
11.05500 360.0
11.06500 363.0
11.07500 308.0
11.08500 336.0
11.09500 231.0
11.10500 228.0
11.11500 271.0
11.12500 230.0
11.13500 235.0
11.14500 254.0
11.15500 266.0
11.16500 257.0
11.17500 250.0
11.18500 185.0
11.19500 179.0
11.20500 182.0
11.21500 201.0
11.22500 178.0
11.23500 139.0
11.24500 131.0
11.25500 152.0
11.26500 182.0
11.27500 291.0
11.28500 297.0
11.29500 209.0
11.30500 209.0
11.31500 245.0
11.32500 162.0
11.33500 199.0
11.34500 180.0
11.35500 204.0
11.36500 155.0
11.37500 156.0
11.38500 264.0
11.39500 250.0
11.40500 171.0
11.41500 169.0
11.42500 194.0
11.43500 229.0
11.44500 220.0
11.45500 169.0
11.46500 199.0
11.47500 163.0
11.48500 220.0
11.49500 202.0
11.50500 222.0
11.51500 197.0
11.52500 226.0
11.53500 197.0
11.54500 250.0
11.55500 262.0
11.56500 231.0
11.57500 263.0
11.58500 230.0
11.59500 221.0
11.60500 195.0
11.61500 235.0
11.62500 233.0
11.63500 221.0
11.64500 259.0
11.65500 208.0
11.66500 283.0
11.67500 260.0
11.68500 236.0
11.69500 344.0
11.70500 240.0
11.71500 300.0
11.72500 328.0
11.73500 257.0
11.74500 226.0
11.75500 294.0
11.76500 347.0
11.77500 331.0
11.78500 310.0
11.79500 371.0
11.80500 258.0
11.81500 279.0
11.82500 259.0
11.83500 208.0
11.84500 244.0
11.85500 304.0
11.86500 326.0
11.87500 310.0
11.88500 388.0
11.89500 302.0
11.90500 310.0
11.91500 283.0
11.92500 263.0
11.93500 238.0
11.94500 282.0
11.95500 273.0
11.96500 277.0
11.97500 381.0
11.98500 392.0
11.99500 474.0
