0.01000 9467046.0
0.02000 8816781.0
0.03000 7005647.0
0.04000 5160713.0
0.05000 3276804.0
0.06000 1923926.0
0.07000 1455908.0
0.08000 1541599.0
0.09000 1711401.0
0.10000 1913559.0
0.11000 2096284.0
0.12000 2271824.0
0.13000 2481193.0
0.14000 2646734.0
0.15000 2838972.0
0.16000 3008285.0
0.17000 3165330.0
0.18000 3375953.0
0.19000 3545036.0
0.20000 3703258.0
0.21000 3869120.0
0.22000 4009645.0
0.23000 4211532.0
0.24000 4362932.0
0.25000 4463847.0
0.26000 4659625.0
0.27000 4776793.0
0.28000 4967457.0
0.29000 5102804.0
0.30000 5214717.0
0.31000 5367689.0
0.32000 5496956.0
0.33000 5643997.0
0.34000 5778888.0
0.35000 5849670.0
0.36000 6067505.0
0.37000 6167852.0
0.38000 6317606.0
0.39000 6443590.0
0.40000 6496761.0
0.41000 6609284.0
0.42000 6684963.0
0.43000 6771121.0
0.44000 6908042.0
0.45000 6979767.0
0.46000 7111896.0
0.47000 7195809.0
0.48000 7246913.0
0.49000 7395890.0
0.50000 7436057.0
0.51000 7484043.0
0.52000 7558670.0
0.53000 7593488.0
0.54000 7756413.0
0.55000 7779526.0
0.56000 7851959.0
0.57000 7909431.0
0.58000 7961395.0
0.59000 8079385.0
0.60000 8086303.0
0.61000 8134481.0
0.62000 8171404.0
0.63000 8178602.0
0.64000 8243840.0
0.65000 8241670.0
0.66000 8205616.0
0.67000 8238589.0
0.68000 8242365.0
0.69000 8273775.0
0.70000 8268024.0
0.71000 8210918.0
0.72000 8098679.0
0.73000 7992904.0
0.74000 7790316.0
0.75000 7483346.0
0.76000 6896279.0
0.77000 6029397.0
0.78000 5004328.0
0.79000 4039334.0
0.80000 3368891.0
0.81000 2857210.0
0.82000 2455290.0
0.83000 2144122.0
0.84000 1891982.0
0.85000 1689541.0
0.86000 1505239.0
0.87000 1360259.0
0.88000 1239959.0
0.89000 1122133.0
0.90000 1031242.0
0.91000 944038.0
0.92000 869550.0
0.93000 807956.0
0.94000 742880.0
0.95000 692184.0
0.96000 639783.0
0.97000 591400.0
0.98000 552135.0
0.99000 514769.0
1.00000 480416.0
1.01000 451370.0
1.02000 424014.0
1.03000 399258.0
1.04000 374137.0
1.05000 352284.0
1.06000 335159.0
1.07000 319406.0
1.08000 303944.0
1.09000 286936.0
1.10000 271755.0
1.11000 259986.0
1.12000 246246.0
1.13000 233942.0
1.14000 223429.0
1.15000 212848.0
1.16000 205279.0
1.17000 196045.0
1.18000 187636.0
1.19000 179923.0
1.20000 171690.0
1.21000 168234.0
1.22000 163757.0
1.23000 158680.0
1.24000 152161.0
1.25000 146320.0
1.26000 143162.0
1.27000 139688.0
1.28000 134138.0
1.29000 132863.0
1.30000 129171.0
1.31000 127882.0
1.32000 124930.0
1.33000 124752.0
1.34000 124240.0
1.35000 123342.0
1.36000 125801.0
1.37000 128293.0
1.38000 131078.0
1.39000 137474.0
1.40000 145653.0
1.41000 161137.0
1.42000 182368.0
1.43000 212646.0
1.44000 271311.0
1.45000 361232.0
1.46000 521937.0
1.47000 851413.0
1.48000 1228232.0
1.49000 1262044.0
1.50000 824031.0
1.51000 341879.0
1.52000 113012.0
1.53000 48553.0
1.54000 28778.0
1.55000 19661.0
1.56000 15077.0
1.57000 12796.0
1.58000 11043.0
1.59000 9807.0
1.60000 9951.0
1.61000 9780.0
1.62000 9441.0
1.63000 9399.0
1.64000 9260.0
1.65000 9514.0
1.66000 9246.0
1.67000 9027.0
1.68000 8940.0
1.69000 8787.0
1.70000 8776.0
1.71000 8707.0
1.72000 8612.0
1.73000 8457.0
1.74000 8131.0
1.75000 7746.0
1.76000 7775.0
1.77000 7665.0
1.78000 7344.0
1.79000 7141.0
1.80000 6845.0
1.81000 6976.0
1.82000 6701.0
1.83000 6630.0
1.84000 6424.0
1.85000 6257.0
1.86000 6212.0
1.87000 5726.0
1.88000 6004.0
1.89000 5700.0
1.90000 5580.0
1.91000 5484.0
1.92000 5010.0
1.93000 5007.0
1.94000 4875.0
1.95000 4864.0
1.96000 4685.0
1.97000 4644.0
1.98000 4548.0
1.99000 4357.0
2.00000 4206.0
2.01000 4164.0
2.02000 4050.0
2.03000 4035.0
2.04000 3722.0
2.05000 3763.0
2.06000 3747.0
2.07000 3420.0
2.08000 3464.0
2.09000 3422.0
2.10000 3155.0
2.11000 3157.0
2.12000 3203.0
2.13000 2936.0
2.14000 2986.0
2.15000 2887.0
2.16000 2837.0
2.17000 2688.0
2.18000 2624.0
2.19000 2651.0
2.20000 2538.0
2.21000 2579.0
2.22000 2449.0
2.23000 2506.0
2.24000 2405.0
2.25000 2244.0
2.26000 2342.0
2.27000 2229.0
2.28000 2208.0
2.29000 2204.0
2.30000 2149.0
2.31000 2175.0
2.32000 2023.0
2.33000 2040.0
2.34000 2092.0
2.35000 2038.0
2.36000 2033.0
2.37000 1974.0
2.38000 1975.0
2.39000 2041.0
2.40000 1988.0
2.41000 1847.0
2.42000 1814.0
2.43000 1907.0
2.44000 1904.0
2.45000 1966.0
2.46000 1908.0
2.47000 1953.0
2.48000 1974.0
2.49000 1921.0
2.50000 2070.0
2.51000 2021.0
2.52000 2225.0
2.53000 2330.0
2.54000 2381.0
2.55000 2567.0
2.56000 2986.0
2.57000 3560.0
2.58000 3929.0
2.59000 4575.0
2.60000 6011.0
2.61000 8664.0
2.62000 12011.0
2.63000 16124.0
2.64000 27690.0
2.65000 47116.0
2.66000 53629.0
2.67000 39317.0
2.68000 19214.0
2.69000 8007.0
2.70000 4410.0
2.71000 3320.0
2.72000 2497.0
2.73000 1740.0
2.74000 1106.0
2.75000 878.0
2.76000 792.0
2.77000 631.0
2.78000 608.0
2.79000 481.0
2.80000 450.0
2.81000 376.0
2.82000 347.0
2.83000 369.0
2.84000 285.0
2.85000 292.0
2.86000 285.0
2.87000 261.0
2.88000 290.0
2.89000 251.0
2.90000 255.0
2.91000 270.0
2.92000 261.0
2.93000 203.0
2.94000 212.0
2.95000 222.0
2.96000 245.0
2.97000 196.0
2.98000 198.0
2.99000 222.0
3.00000 235.0
3.01000 233.0
3.02000 212.0
3.03000 215.0
3.04000 194.0
3.05000 197.0
3.06000 211.0
3.07000 194.0
3.08000 200.0
3.09000 208.0
3.10000 200.0
3.11000 174.0
3.12000 168.0
3.13000 189.0
3.14000 185.0
3.15000 185.0
3.16000 195.0
3.17000 183.0
3.18000 187.0
3.19000 156.0
3.20000 177.0
3.21000 170.0
3.22000 147.0
3.23000 141.0
3.24000 123.0
3.25000 137.0
3.26000 161.0
3.27000 156.0
3.28000 125.0
3.29000 145.0
3.30000 131.0
3.31000 127.0
3.32000 120.0
3.33000 130.0
3.34000 137.0
3.35000 126.0
3.36000 126.0
3.37000 123.0
3.38000 120.0
3.39000 138.0
3.40000 111.0
3.41000 104.0
3.42000 127.0
3.43000 118.0
3.44000 122.0
3.45000 135.0
3.46000 115.0
3.47000 112.0
3.48000 103.0
3.49000 89.0
3.50000 106.0
3.51000 105.0
3.52000 94.0
3.53000 99.0
3.54000 98.0
3.55000 120.0
3.56000 107.0
3.57000 145.0
3.58000 126.0
3.59000 110.0
3.60000 109.0
3.61000 112.0
3.62000 126.0
3.63000 105.0
3.64000 125.0
3.65000 122.0
3.66000 113.0
3.67000 113.0
3.68000 99.0
3.69000 102.0
3.70000 133.0
3.71000 121.0
3.72000 98.0
3.73000 135.0
3.74000 104.0
3.75000 122.0
3.76000 144.0
3.77000 125.0
3.78000 129.0
3.79000 189.0
3.80000 188.0
3.81000 213.0
3.82000 219.0
3.83000 213.0
3.84000 371.0
3.85000 482.0
3.86000 642.0
3.87000 825.0
3.88000 1246.0
3.89000 1794.0
3.90000 1720.0
3.91000 1223.0
3.92000 654.0
3.93000 369.0
3.94000 290.0
3.95000 248.0
3.96000 263.0
3.97000 190.0
3.98000 135.0
3.99000 100.0
4.00000 111.0
4.01000 91.0
4.02000 99.0
4.03000 100.0
4.04000 99.0
4.05000 70.0
4.06000 76.0
4.07000 93.0
4.08000 87.0
4.09000 94.0
4.10000 61.0
4.11000 75.0
4.12000 60.0
4.13000 68.0
4.14000 70.0
4.15000 69.0
4.16000 51.0
4.17000 64.0
4.18000 64.0
4.19000 49.0
4.20000 67.0
4.21000 83.0
4.22000 69.0
4.23000 84.0
4.24000 72.0
4.25000 71.0
4.26000 75.0
4.27000 73.0
4.28000 72.0
4.29000 48.0
4.30000 53.0
4.31000 65.0
4.32000 76.0
4.33000 56.0
4.34000 62.0
4.35000 64.0
4.36000 81.0
4.37000 61.0
4.38000 58.0
4.39000 57.0
4.40000 57.0
4.41000 68.0
4.42000 68.0
4.43000 69.0
4.44000 67.0
4.45000 71.0
4.46000 53.0
4.47000 68.0
4.48000 66.0
4.49000 55.0
4.50000 49.0
4.51000 40.0
4.52000 57.0
4.53000 57.0
4.54000 50.0
4.55000 47.0
4.56000 73.0
4.57000 75.0
4.58000 65.0
4.59000 68.0
4.60000 70.0
4.61000 61.0
4.62000 35.0
4.63000 44.0
4.64000 39.0
4.65000 45.0
4.66000 49.0
4.67000 40.0
4.68000 57.0
4.69000 53.0
4.70000 53.0
4.71000 52.0
4.72000 61.0
4.73000 45.0
4.74000 67.0
4.75000 55.0
4.76000 71.0
4.77000 61.0
4.78000 50.0
4.79000 49.0
4.80000 56.0
4.81000 56.0
4.82000 38.0
4.83000 57.0
4.84000 56.0
4.85000 42.0
4.86000 51.0
4.87000 57.0
4.88000 44.0
4.89000 83.0
4.90000 51.0
4.91000 47.0
4.92000 42.0
4.93000 44.0
4.94000 51.0
4.95000 43.0
4.96000 57.0
4.97000 48.0
4.98000 38.0
4.99000 64.0
5.00000 65.0
5.01000 56.0
5.02000 66.0
5.03000 42.0
5.04000 68.0
5.05000 60.0
5.06000 53.0
5.07000 63.0
5.08000 67.0
5.09000 63.0
5.10000 83.0
5.11000 92.0
5.12000 102.0
5.13000 134.0
5.14000 165.0
5.15000 134.0
5.16000 112.0
5.17000 87.0
5.18000 41.0
5.19000 44.0
5.20000 36.0
5.21000 34.0
5.22000 53.0
5.23000 51.0
5.24000 39.0
5.25000 31.0
5.26000 29.0
5.27000 36.0
5.28000 22.0
5.29000 36.0
5.30000 33.0
5.31000 33.0
5.32000 41.0
5.33000 31.0
5.34000 32.0
5.35000 30.0
5.36000 27.0
5.37000 38.0
5.38000 42.0
5.39000 39.0
5.40000 29.0
5.41000 36.0
5.42000 32.0
5.43000 29.0
5.44000 35.0
5.45000 52.0
5.46000 38.0
5.47000 40.0
5.48000 30.0
5.49000 57.0
5.50000 43.0
5.51000 36.0
5.52000 41.0
5.53000 40.0
5.54000 49.0
5.55000 34.0
5.56000 34.0
5.57000 28.0
5.58000 32.0
5.59000 39.0
5.60000 36.0
5.61000 51.0
5.62000 38.0
5.63000 40.0
5.64000 39.0
5.65000 40.0
5.66000 32.0
5.67000 60.0
5.68000 30.0
5.69000 29.0
5.70000 44.0
5.71000 33.0
5.72000 48.0
5.73000 45.0
5.74000 48.0
5.75000 72.0
5.76000 33.0
5.77000 43.0
5.78000 38.0
5.79000 39.0
5.80000 33.0
5.81000 33.0
5.82000 38.0
5.83000 47.0
5.84000 38.0
5.85000 47.0
5.86000 48.0
5.87000 43.0
5.88000 43.0
5.89000 42.0
5.90000 42.0
5.91000 40.0
5.92000 55.0
5.93000 39.0
5.94000 36.0
5.95000 36.0
5.96000 46.0
5.97000 33.0
5.98000 44.0
5.99000 27.0
