0.00500 71771984.0
0.01500 81643304.0
0.02500 70465968.0
0.03500 49836600.0
0.04500 28165560.0
0.05500 13545109.0
0.06500 7007006.0
0.07500 5730185.0
0.08500 6290793.0
0.09500 7032369.0
0.10500 7658238.0
0.11500 8445339.0
0.12500 9134533.0
0.13500 9956925.0
0.14500 10792892.0
0.15500 11528012.0
0.16500 12406609.0
0.17500 13143202.0
0.18500 13864625.0
0.19500 14777604.0
0.20500 15507157.0
0.21500 16347057.0
0.22500 17194088.0
0.23500 17910264.0
0.24500 18818996.0
0.25500 19512296.0
0.26500 20235612.0
0.27500 21103552.0
0.28500 21767988.0
0.29500 22519568.0
0.30500 23304596.0
0.31500 24146368.0
0.32500 24866824.0
0.33500 25494422.0
0.34500 26400938.0
0.35500 27001140.0
0.36500 27824432.0
0.37500 28729768.0
0.38500 29098560.0
0.39500 29594428.0
0.40500 30175620.0
0.41500 30921360.0
0.42500 31819992.0
0.43500 32102592.0
0.44500 32661800.0
0.45500 33251896.0
0.46500 33645320.0
0.47500 34539168.0
0.48500 34739860.0
0.49500 35072524.0
0.50500 35658956.0
0.51500 36065992.0
0.52500 36694672.0
0.53500 36638840.0
0.54500 36615696.0
0.55500 37110636.0
0.56500 37231108.0
0.57500 37554376.0
0.58500 37334932.0
0.59500 37087312.0
0.60500 37196024.0
0.61500 36716108.0
0.62500 36366984.0
0.63500 35286144.0
0.64500 34200692.0
0.65500 33153142.0
0.66500 31510402.0
0.67500 29649730.0
0.68500 27495836.0
0.69500 24844412.0
0.70500 22676612.0
0.71500 20267436.0
0.72500 18208870.0
0.73500 16341268.0
0.74500 14549470.0
0.75500 13232127.0
0.76500 11966605.0
0.77500 10891147.0
0.78500 9972693.0
0.79500 9068214.0
0.80500 8420787.0
0.81500 7763756.0
0.82500 7212674.0
0.83500 6669693.0
0.84500 6191745.0
0.85500 5777386.0
0.86500 5469183.0
0.87500 5142414.0
0.88500 4828880.0
0.89500 4491241.0
0.90500 4211617.0
0.91500 3989720.0
0.92500 3754720.0
0.93500 3559236.0
0.94500 3343181.0
0.95500 3159428.0
0.96500 3015528.0
0.97500 2834252.0
0.98500 2703370.0
0.99500 2567290.0
1.00500 2432422.0
1.01500 2347611.0
1.02500 2220165.0
1.03500 2123422.0
1.04500 2036407.0
1.05500 1948108.0
1.06500 1878399.0
1.07500 1803746.0
1.08500 1730177.0
1.09500 1655887.0
1.10500 1570217.0
1.11500 1525817.0
1.12500 1460592.0
1.13500 1402410.0
1.14500 1344678.0
1.15500 1285030.0
1.16500 1231789.0
1.17500 1182212.0
1.18500 1143672.0
1.19500 1093784.0
1.20500 1047769.0
1.21500 1013507.0
1.22500 972043.0
1.23500 942180.0
1.24500 919333.0
1.25500 875773.0
1.26500 844159.0
1.27500 816387.0
1.28500 794134.0
1.29500 770004.0
1.30500 744925.0
1.31500 722584.0
1.32500 697505.0
1.33500 671235.0
1.34500 652689.0
1.35500 629448.0
1.36500 610626.0
1.37500 596382.0
1.38500 583788.0
1.39500 572802.0
1.40500 558330.0
1.41500 540547.0
1.42500 524826.0
1.43500 511671.0
1.44500 501255.0
1.45500 488603.0
1.46500 473436.0
1.47500 465269.0
1.48500 453388.0
1.49500 436147.0
1.50500 417748.0
1.51500 404316.0
1.52500 393063.0
1.53500 383784.0
1.54500 375881.0
1.55500 366526.0
1.56500 360435.0
1.57500 354824.0
1.58500 350506.0
1.59500 348072.0
1.60500 348354.0
1.61500 346898.0
1.62500 343723.0
1.63500 337964.0
1.64500 330813.0
1.65500 322236.0
1.66500 312291.0
1.67500 303582.0
1.68500 300162.0
1.69500 297645.0
1.70500 296940.0
1.71500 300525.0
1.72500 302723.0
1.73500 306287.0
1.74500 312125.0
1.75500 315193.0
1.76500 317309.0
1.77500 320877.0
1.78500 326492.0
1.79500 329395.0
1.80500 329572.0
1.81500 338329.0
1.82500 348460.0
1.83500 362861.0
1.84500 377962.0
1.85500 394315.0
1.86500 406548.0
1.87500 422588.0
1.88500 440595.0
1.89500 466783.0
1.90500 493616.0
1.91500 524676.0
1.92500 571718.0
1.93500 635885.0
1.94500 714130.0
1.95500 822508.0
1.96500 947837.0
1.97500 1135239.0
1.98500 1414465.0
1.99500 1824299.0
2.00500 2480508.0
2.01500 3464945.0
2.02500 5202627.0
2.03500 7617420.0
2.04500 10225589.0
2.05500 11901572.0
2.06500 11436142.0
2.07500 8895982.0
2.08500 5990702.0
2.09500 3897465.0
2.10500 2526863.0
2.11500 1761612.0
2.12500 1264974.0
2.13500 936039.0
2.14500 733969.0
2.15500 571428.0
2.16500 456859.0
2.17500 371208.0
2.18500 299662.0
2.19500 253135.0
2.20500 210738.0
2.21500 178574.0
2.22500 152774.0
2.23500 128884.0
2.24500 112090.0
2.25500 97967.0
2.26500 84998.0
2.27500 75801.0
2.28500 65350.0
2.29500 58816.0
2.30500 53243.0
2.31500 47308.0
2.32500 42622.0
2.33500 37858.0
2.34500 34273.0
2.35500 31584.0
2.36500 29416.0
2.37500 27410.0
2.38500 25012.0
2.39500 23406.0
2.40500 21896.0
2.41500 20308.0
2.42500 19016.0
2.43500 17618.0
2.44500 16242.0
2.45500 14945.0
2.46500 13457.0
2.47500 12706.0
2.48500 11814.0
2.49500 10952.0
2.50500 10358.0
2.51500 9859.0
2.52500 9482.0
2.53500 8979.0
2.54500 8054.0
2.55500 7767.0
2.56500 7270.0
2.57500 6704.0
2.58500 6159.0
2.59500 5941.0
2.60500 5553.0
2.61500 5053.0
2.62500 4758.0
2.63500 4552.0
2.64500 4343.0
2.65500 3934.0
2.66500 3801.0
2.67500 3624.0
2.68500 3406.0
2.69500 3286.0
2.70500 3249.0
2.71500 3197.0
2.72500 3215.0
2.73500 3086.0
2.74500 3022.0
2.75500 3002.0
2.76500 2986.0
2.77500 2935.0
2.78500 2759.0
2.79500 2849.0
2.80500 2684.0
2.81500 2759.0
2.82500 2638.0
2.83500 2832.0
2.84500 2820.0
2.85500 2775.0
2.86500 2793.0
2.87500 2785.0
2.88500 2873.0
2.89500 2875.0
2.90500 2888.0
2.91500 2815.0
2.92500 2669.0
2.93500 2547.0
2.94500 2719.0
2.95500 2619.0
2.96500 2661.0
2.97500 2616.0
2.98500 2675.0
2.99500 2833.0
3.00500 2596.0
3.01500 2532.0
3.02500 2473.0
3.03500 2555.0
3.04500 2494.0
3.05500 2428.0
3.06500 2371.0
3.07500 2421.0
3.08500 2322.0
3.09500 2458.0
3.10500 2449.0
3.11500 2601.0
3.12500 2665.0
3.13500 2687.0
3.14500 2795.0
3.15500 2755.0
3.16500 2784.0
3.17500 2770.0
3.18500 2624.0
3.19500 2741.0
3.20500 2767.0
3.21500 2708.0
3.22500 2732.0
3.23500 2869.0
3.24500 2718.0
3.25500 2699.0
3.26500 2763.0
3.27500 2685.0
3.28500 2608.0
3.29500 2556.0
3.30500 2589.0
3.31500 2492.0
3.32500 2477.0
3.33500 2319.0
3.34500 2128.0
3.35500 2142.0
3.36500 2058.0
3.37500 1961.0
3.38500 2097.0
3.39500 2041.0
3.40500 2049.0
3.41500 2254.0
3.42500 2248.0
3.43500 2297.0
3.44500 2356.0
3.45500 2383.0
3.46500 2281.0
3.47500 2459.0
3.48500 2432.0
3.49500 2384.0
3.50500 2336.0
3.51500 2312.0
3.52500 2225.0
3.53500 2400.0
3.54500 2376.0
3.55500 2493.0
3.56500 2485.0
3.57500 2331.0
3.58500 2399.0
3.59500 2343.0
3.60500 2279.0
3.61500 2310.0
3.62500 2353.0
3.63500 2185.0
3.64500 2132.0
3.65500 2216.0
3.66500 2246.0
3.67500 2191.0
3.68500 2239.0
3.69500 2315.0
3.70500 2161.0
3.71500 2290.0
3.72500 2299.0
3.73500 2226.0
3.74500 2174.0
3.75500 2141.0
3.76500 2128.0
3.77500 2212.0
3.78500 2164.0
3.79500 2004.0
3.80500 1941.0
3.81500 1798.0
3.82500 1808.0
3.83500 1754.0
3.84500 1766.0
3.85500 1692.0
3.86500 1736.0
3.87500 2043.0
3.88500 2398.0
3.89500 3010.0
3.90500 4849.0
3.91500 9158.0
3.92500 17129.0
3.93500 27574.0
3.94500 35083.0
3.95500 34705.0
3.96500 27965.0
3.97500 21279.0
3.98500 16215.0
3.99500 13158.0
4.00500 11010.0
4.01500 9218.0
4.02500 8347.0
4.03500 7323.0
4.04500 6952.0
4.05500 6288.0
4.06500 6112.0
4.07500 5865.0
4.08500 5270.0
4.09500 5279.0
4.10500 4884.0
4.11500 4773.0
4.12500 4450.0
4.13500 4300.0
4.14500 4150.0
4.15500 3986.0
4.16500 3831.0
4.17500 3597.0
4.18500 3578.0
4.19500 3552.0
4.20500 3415.0
4.21500 3461.0
4.22500 3477.0
4.23500 3530.0
4.24500 3465.0
4.25500 3453.0
4.26500 3390.0
4.27500 3317.0
4.28500 3151.0
4.29500 3116.0
4.30500 2785.0
4.31500 2920.0
4.32500 3024.0
4.33500 3016.0
4.34500 2723.0
4.35500 2798.0
4.36500 2904.0
4.37500 2960.0
4.38500 2805.0
4.39500 2785.0
4.40500 2703.0
4.41500 2615.0
4.42500 2584.0
4.43500 2490.0
4.44500 2593.0
4.45500 2434.0
4.46500 2463.0
4.47500 2281.0
4.48500 2348.0
4.49500 2440.0
4.50500 2351.0
4.51500 2433.0
4.52500 2421.0
4.53500 2420.0
4.54500 2542.0
4.55500 2521.0
4.56500 2438.0
4.57500 2381.0
4.58500 2552.0
4.59500 2504.0
4.60500 2459.0
4.61500 2320.0
4.62500 2337.0
4.63500 2321.0
4.64500 2274.0
4.65500 2250.0
4.66500 2187.0
4.67500 2193.0
4.68500 2125.0
4.69500 2078.0
4.70500 2063.0
4.71500 2137.0
4.72500 2109.0
4.73500 2056.0
4.74500 2068.0
4.75500 2024.0
4.76500 1968.0
4.77500 1974.0
4.78500 1929.0
4.79500 1948.0
4.80500 1930.0
4.81500 1979.0
4.82500 2066.0
4.83500 1988.0
4.84500 1940.0
4.85500 1898.0
4.86500 1807.0
4.87500 1819.0
4.88500 1808.0
4.89500 1827.0
4.90500 1866.0
4.91500 1829.0
4.92500 1790.0
4.93500 1772.0
4.94500 1890.0
4.95500 1819.0
4.96500 1768.0
4.97500 1780.0
4.98500 1860.0
4.99500 1636.0
5.00500 1627.0
5.01500 1693.0
5.02500 1690.0
5.03500 1662.0
5.04500 1739.0
5.05500 1739.0
5.06500 1661.0
5.07500 1791.0
5.08500 1609.0
5.09500 1559.0
5.10500 1531.0
5.11500 1569.0
5.12500 1576.0
5.13500 1467.0
5.14500 1464.0
5.15500 1528.0
5.16500 1448.0
5.17500 1590.0
5.18500 1505.0
5.19500 1521.0
5.20500 1436.0
5.21500 1428.0
5.22500 1493.0
5.23500 1528.0
5.24500 1481.0
5.25500 1406.0
5.26500 1479.0
5.27500 1411.0
5.28500 1429.0
5.29500 1348.0
5.30500 1359.0
5.31500 1318.0
5.32500 1339.0
5.33500 1371.0
5.34500 1336.0
5.35500 1278.0
5.36500 1357.0
5.37500 1351.0
5.38500 1282.0
5.39500 1258.0
5.40500 1224.0
5.41500 1200.0
5.42500 1336.0
5.43500 1291.0
5.44500 1311.0
5.45500 1309.0
5.46500 1195.0
5.47500 1230.0
5.48500 1245.0
5.49500 1168.0
5.50500 1131.0
5.51500 1110.0
5.52500 1157.0
5.53500 1123.0
5.54500 1156.0
5.55500 1159.0
5.56500 1171.0
5.57500 1169.0
5.58500 1139.0
5.59500 1166.0
5.60500 1121.0
5.61500 1203.0
5.62500 1135.0
5.63500 1188.0
5.64500 1128.0
5.65500 1092.0
5.66500 1144.0
5.67500 1157.0
5.68500 1207.0
5.69500 1176.0
5.70500 1203.0
5.71500 1195.0
5.72500 1195.0
5.73500 1368.0
5.74500 1333.0
5.75500 1420.0
5.76500 1593.0
5.77500 1687.0
5.78500 1785.0
5.79500 2121.0
5.80500 2590.0
5.81500 3465.0
5.82500 4484.0
5.83500 6276.0
5.84500 8467.0
5.85500 10337.0
5.86500 11084.0
5.87500 10263.0
5.88500 8522.0
5.89500 6926.0
5.90500 5391.0
5.91500 4411.0
5.92500 3667.0
5.93500 3147.0
5.94500 2592.0
5.95500 2348.0
5.96500 2028.0
5.97500 1985.0
5.98500 1760.0
5.99500 1502.0
6.00500 1355.0
6.01500 1245.0
6.02500 1190.0
6.03500 1175.0
6.04500 1006.0
6.05500 1005.0
6.06500 985.0
6.07500 982.0
6.08500 907.0
6.09500 887.0
6.10500 910.0
6.11500 807.0
6.12500 699.0
6.13500 720.0
6.14500 624.0
6.15500 624.0
6.16500 659.0
6.17500 569.0
6.18500 693.0
6.19500 635.0
6.20500 704.0
6.21500 655.0
6.22500 790.0
6.23500 607.0
6.24500 625.0
6.25500 586.0
6.26500 552.0
6.27500 565.0
6.28500 566.0
6.29500 487.0
6.30500 539.0
6.31500 544.0
6.32500 566.0
6.33500 535.0
6.34500 552.0
6.35500 514.0
6.36500 471.0
6.37500 463.0
6.38500 511.0
6.39500 473.0
6.40500 411.0
6.41500 454.0
6.42500 518.0
6.43500 506.0
6.44500 429.0
6.45500 381.0
6.46500 404.0
6.47500 344.0
6.48500 364.0
6.49500 383.0
6.50500 446.0
6.51500 459.0
6.52500 453.0
6.53500 428.0
6.54500 431.0
6.55500 356.0
6.56500 372.0
6.57500 381.0
6.58500 420.0
6.59500 438.0
6.60500 406.0
6.61500 373.0
6.62500 400.0
6.63500 354.0
6.64500 293.0
6.65500 296.0
6.66500 302.0
6.67500 331.0
6.68500 300.0
6.69500 283.0
6.70500 358.0
6.71500 318.0
6.72500 304.0
6.73500 300.0
6.74500 325.0
6.75500 321.0
6.76500 292.0
6.77500 337.0
6.78500 343.0
6.79500 311.0
6.80500 333.0
6.81500 340.0
6.82500 378.0
6.83500 347.0
6.84500 321.0
6.85500 286.0
6.86500 334.0
6.87500 320.0
6.88500 250.0
6.89500 271.0
6.90500 321.0
6.91500 267.0
6.92500 283.0
6.93500 265.0
6.94500 264.0
6.95500 285.0
6.96500 291.0
6.97500 249.0
6.98500 283.0
6.99500 330.0
7.00500 295.0
7.01500 252.0
7.02500 277.0
7.03500 259.0
7.04500 278.0
7.05500 301.0
7.06500 293.0
7.07500 228.0
7.08500 232.0
7.09500 272.0
7.10500 278.0
7.11500 353.0
7.12500 374.0
7.13500 364.0
7.14500 284.0
7.15500 262.0
7.16500 273.0
7.17500 311.0
7.18500 304.0
7.19500 404.0
7.20500 504.0
7.21500 591.0
7.22500 469.0
7.23500 423.0
7.24500 425.0
7.25500 410.0
7.26500 325.0
7.27500 343.0
7.28500 293.0
7.29500 346.0
7.30500 304.0
7.31500 295.0
7.32500 276.0
7.33500 260.0
7.34500 289.0
7.35500 281.0
7.36500 319.0
7.37500 292.0
7.38500 381.0
7.39500 306.0
7.40500 319.0
7.41500 298.0
7.42500 299.0
7.43500 336.0
7.44500 321.0
7.45500 236.0
7.46500 243.0
7.47500 303.0
7.48500 271.0
7.49500 307.0
7.50500 336.0
7.51500 322.0
7.52500 295.0
7.53500 312.0
7.54500 241.0
7.55500 271.0
7.56500 275.0
7.57500 282.0
7.58500 311.0
7.59500 310.0
7.60500 304.0
7.61500 284.0
7.62500 321.0
7.63500 306.0
7.64500 228.0
7.65500 334.0
7.66500 355.0
7.67500 360.0
7.68500 328.0
7.69500 387.0
7.70500 387.0
7.71500 369.0
7.72500 397.0
7.73500 373.0
7.74500 366.0
7.75500 418.0
7.76500 481.0
7.77500 591.0
7.78500 700.0
7.79500 771.0
7.80500 721.0
7.81500 762.0
7.82500 748.0
7.83500 646.0
7.84500 647.0
7.85500 608.0
7.86500 520.0
7.87500 534.0
7.88500 486.0
7.89500 459.0
7.90500 388.0
7.91500 378.0
7.92500 354.0
7.93500 389.0
7.94500 347.0
7.95500 350.0
7.96500 323.0
7.97500 376.0
7.98500 284.0
7.99500 318.0
8.00500 277.0
8.01500 334.0
8.02500 370.0
8.03500 301.0
8.04500 276.0
8.05500 270.0
8.06500 265.0
8.07500 276.0
8.08500 262.0
8.09500 303.0
8.10500 330.0
8.11500 313.0
8.12500 327.0
8.13500 313.0
8.14500 402.0
8.15500 351.0
8.16500 340.0
8.17500 377.0
8.18500 359.0
8.19500 344.0
8.20500 374.0
8.21500 369.0
8.22500 291.0
8.23500 310.0
8.24500 332.0
8.25500 286.0
8.26500 290.0
8.27500 297.0
8.28500 328.0
8.29500 346.0
8.30500 345.0
8.31500 334.0
8.32500 346.0
8.33500 347.0
8.34500 358.0
8.35500 352.0
8.36500 372.0
8.37500 341.0
8.38500 364.0
8.39500 287.0
8.40500 332.0
8.41500 335.0
8.42500 323.0
8.43500 244.0
8.44500 245.0
8.45500 247.0
8.46500 231.0
8.47500 255.0
8.48500 266.0
8.49500 218.0
8.50500 273.0
8.51500 327.0
8.52500 315.0
8.53500 291.0
8.54500 316.0
8.55500 299.0
8.56500 336.0
8.57500 271.0
8.58500 282.0
8.59500 265.0
8.60500 259.0
8.61500 240.0
8.62500 272.0
8.63500 256.0
8.64500 260.0
8.65500 305.0
8.66500 312.0
8.67500 292.0
8.68500 371.0
8.69500 343.0
8.70500 313.0
8.71500 309.0
8.72500 266.0
8.73500 240.0
8.74500 292.0
8.75500 288.0
8.76500 279.0
8.77500 306.0
8.78500 294.0
8.79500 307.0
8.80500 372.0
8.81500 328.0
8.82500 344.0
8.83500 293.0
8.84500 290.0
8.85500 259.0
8.86500 237.0
8.87500 271.0
8.88500 268.0
8.89500 268.0
8.90500 316.0
8.91500 283.0
8.92500 248.0
8.93500 290.0
8.94500 286.0
8.95500 303.0
8.96500 251.0
8.97500 289.0
8.98500 277.0
8.99500 310.0
9.00500 297.0
9.01500 299.0
9.02500 312.0
9.03500 285.0
9.04500 244.0
9.05500 288.0
9.06500 298.0
9.07500 275.0
9.08500 270.0
9.09500 201.0
9.10500 232.0
9.11500 274.0
9.12500 288.0
9.13500 305.0
9.14500 310.0
9.15500 379.0
9.16500 449.0
9.17500 372.0
9.18500 397.0
9.19500 376.0
9.20500 307.0
9.21500 333.0
9.22500 380.0
9.23500 396.0
9.24500 471.0
9.25500 476.0
9.26500 545.0
9.27500 570.0
9.28500 504.0
9.29500 482.0
9.30500 483.0
9.31500 550.0
9.32500 510.0
9.33500 441.0
9.34500 472.0
9.35500 346.0
9.36500 379.0
9.37500 344.0
9.38500 348.0
9.39500 333.0
9.40500 322.0
9.41500 308.0
9.42500 320.0
9.43500 336.0
9.44500 356.0
9.45500 389.0
9.46500 419.0
9.47500 394.0
9.48500 451.0
9.49500 426.0
9.50500 381.0
9.51500 406.0
9.52500 410.0
9.53500 488.0
9.54500 413.0
9.55500 386.0
9.56500 439.0
9.57500 447.0
9.58500 558.0
9.59500 594.0
9.60500 464.0
9.61500 474.0
9.62500 486.0
9.63500 503.0
9.64500 494.0
9.65500 473.0
9.66500 425.0
9.67500 421.0
9.68500 424.0
9.69500 499.0
9.70500 568.0
9.71500 543.0
9.72500 455.0
9.73500 489.0
9.74500 427.0
9.75500 522.0
9.76500 437.0
9.77500 423.0
9.78500 470.0
9.79500 503.0
9.80500 553.0
9.81500 616.0
9.82500 457.0
9.83500 401.0
9.84500 387.0
9.85500 383.0
9.86500 380.0
9.87500 401.0
9.88500 554.0
9.89500 520.0
9.90500 452.0
9.91500 483.0
9.92500 436.0
9.93500 470.0
9.94500 488.0
9.95500 564.0
9.96500 567.0
9.97500 594.0
9.98500 499.0
9.99500 509.0
10.00500 541.0
10.01500 476.0
10.02500 435.0
10.03500 389.0
10.04500 438.0
10.05500 457.0
