-0.00250 68.0
0.00750 62.0
0.01750 45.0
0.02750 49.0
0.03750 53.0
0.04750 65.0
0.05750 72.0
0.06750 69.0
0.07750 72.0
0.08750 93.0
0.09750 62.0
0.10750 83.0
0.11750 56.0
0.12750 80.0
0.13750 97.0
0.14750 85.0
0.15750 69.0
0.16750 72.0
0.17750 53.0
0.18750 65.0
0.19750 129.0
0.20750 103.0
0.21750 101.0
0.22750 146.0
0.23750 110.0
0.24750 111.0
0.25750 121.0
0.26750 119.0
0.27750 119.0
0.28750 132.0
0.29750 126.0
0.30750 97.0
0.31750 100.0
0.32750 111.0
0.33750 128.0
0.34750 122.0
0.35750 139.0
0.36750 141.0
0.37750 198.0
0.38750 234.0
0.39750 201.0
0.40750 206.0
0.41750 203.0
0.42750 236.0
0.43750 241.0
0.44750 249.0
0.45750 315.0
0.46750 337.0
0.47750 365.0
0.48750 426.0
0.49750 446.0
0.50750 471.0
0.51750 507.0
0.52750 572.0
0.53750 586.0
0.54750 727.0
0.55750 790.0
0.56750 859.0
0.57750 1058.0
0.58750 1150.0
0.59750 1211.0
0.60750 1267.0
0.61750 1388.0
0.62750 1637.0
0.63750 1708.0
0.64750 1925.0
0.65750 2091.0
0.66750 2238.0
0.67750 2386.0
0.68750 2565.0
0.69750 2637.0
0.70750 2706.0
0.71750 3011.0
0.72750 3107.0
0.73750 3321.0
0.74750 3418.0
0.75750 3586.0
0.76750 3735.0
0.77750 3909.0
0.78750 4119.0
0.79750 4104.0
0.80750 4455.0
0.81750 4613.0
0.82750 4917.0
0.83750 5052.0
0.84750 5435.0
0.85750 5784.0
0.86750 5902.0
0.87750 6570.0
0.88750 7146.0
0.89750 7553.0
0.90750 8148.0
0.91750 9173.0
0.92750 10762.0
0.93750 17469.0
0.94750 184360.0
0.95750 1397417.0
0.96750 5035006.0
0.97750 8544989.0
0.98750 10172188.0
0.99750 7200947.0
1.00750 1977309.0
1.01750 106105.0
1.02750 14721.0
1.03750 10974.0
1.04750 8976.0
1.05750 7549.0
1.06750 6964.0
1.07750 6158.0
1.08750 5616.0
1.09750 5389.0
1.10750 4926.0
1.11750 4585.0
1.12750 4318.0
1.13750 3973.0
1.14750 3761.0
1.15750 3497.0
1.16750 3301.0
1.17750 3068.0
1.18750 2859.0
1.19750 2764.0
1.20750 2587.0
1.21750 2340.0
1.22750 2345.0
1.23750 2178.0
1.24750 2026.0
1.25750 1817.0
1.26750 1690.0
1.27750 1613.0
1.28750 1495.0
1.29750 1438.0
1.30750 1263.0
1.31750 1063.0
1.32750 1022.0
1.33750 957.0
1.34750 799.0
1.35750 798.0
1.36750 733.0
1.37750 630.0
1.38750 545.0
1.39750 493.0
1.40750 448.0
1.41750 398.0
1.42750 422.0
1.43750 347.0
1.44750 351.0
1.45750 301.0
1.46750 201.0
1.47750 220.0
1.48750 232.0
1.49750 203.0
1.50750 208.0
1.51750 225.0
1.52750 198.0
1.53750 126.0
1.54750 137.0
1.55750 123.0
1.56750 130.0
1.57750 128.0
1.58750 87.0
1.59750 124.0
1.60750 144.0
1.61750 137.0
1.62750 159.0
1.63750 219.0
1.64750 203.0
1.65750 208.0
1.66750 177.0
1.67750 155.0
1.68750 134.0
1.69750 169.0
1.70750 163.0
1.71750 110.0
1.72750 99.0
1.73750 166.0
1.74750 184.0
1.75750 205.0
1.76750 224.0
1.77750 197.0
1.78750 181.0
1.79750 237.0
1.80750 250.0
1.81750 205.0
1.82750 211.0
1.83750 186.0
1.84750 133.0
1.85750 159.0
1.86750 133.0
1.87750 126.0
1.88750 162.0
1.89750 124.0
1.90750 178.0
1.91750 215.0
1.92750 183.0
1.93750 172.0
1.94750 213.0
1.95750 247.0
1.96750 232.0
1.97750 172.0
