0.800000 50221.0
0.810000 46829.0
0.820000 43472.0
0.830000 40481.0
0.840000 38142.0
0.850000 35194.0
0.860000 32652.0
0.870000 30695.0
0.880000 28493.0
0.890000 26634.0
0.900000 24869.0
0.910000 22590.0
0.920000 21025.0
0.930000 19404.0
0.940000 18252.0
0.950000 16770.0
0.960000 15775.0
0.970000 14161.0
0.980000 13019.0
0.990000 11816.0
1.000000 10837.0
1.010000 9801.0
1.020000 8742.0
1.030000 7639.0
1.040000 6906.0
1.050000 6022.0
1.060000 5446.0
1.070000 4679.0
1.080000 4109.0
1.090000 3446.0
1.100000 3147.0
1.110000 2673.0
1.120000 2480.0
1.130000 2200.0
1.140000 2200.0
1.150000 1832.0
1.160000 1901.0
1.170000 1697.0
1.180000 1689.0
1.190000 1467.0
1.200000 1498.0
1.210000 1274.0
1.220000 1296.0
1.230000 1089.0
1.240000 1253.0
1.250000 1011.0
1.260000 1024.0
1.270000 949.0
1.280000 930.0
1.290000 762.0
1.300000 812.0
1.310000 686.0
1.320000 745.0
1.330000 620.0
1.340000 605.0
1.350000 520.0
1.360000 543.0
1.370000 441.0
1.380000 502.0
1.390000 400.0
1.400000 488.0
1.410000 369.0
1.420000 376.0
1.430000 313.0
1.440000 372.0
1.450000 292.0
1.460000 339.0
1.470000 240.0
1.480000 276.0
1.490000 225.0
1.500000 219.0
1.510000 196.0
1.520000 188.0
1.530000 164.0
1.540000 188.0
1.550000 137.0
1.560000 151.0
1.570000 142.0
1.580000 154.0
1.590000 135.0
1.600000 154.0
1.610000 123.0
1.620000 146.0
1.630000 121.0
1.640000 146.0
1.650000 117.0
1.660000 144.0
1.670000 100.0
1.680000 112.0
1.690000 81.0
1.700000 90.0
1.710000 62.0
1.720000 58.0
1.730000 48.0
1.740000 71.0
1.750000 66.0
1.760000 90.0
1.770000 92.0
1.780000 104.0
1.790000 108.0
1.800000 104.0
1.810000 130.0
1.820000 137.0
1.830000 104.0
1.840000 130.0
1.850000 114.0
1.860000 108.0
1.870000 88.0
1.880000 67.0
1.890000 46.0
1.900000 67.0
1.910000 44.0
1.920000 48.0
1.930000 50.0
1.940000 88.0
1.950000 114.0
1.960000 174.0
1.970000 202.0
1.980000 303.0
1.990000 313.0
2.000000 441.0
2.010000 520.0
2.020000 676.0
2.030000 718.0
2.040000 829.0
2.050000 847.0
2.060000 1043.0
2.070000 1037.0
2.080000 1076.0
2.090000 1149.0
2.100000 1218.0
2.110000 1190.0
2.120000 1267.0
2.130000 1149.0
2.140000 1183.0
2.150000 1082.0
2.160000 1116.0
2.170000 967.0
2.180000 955.0
2.190000 829.0
2.200000 801.0
2.210000 635.0
2.220000 605.0
2.230000 493.0
2.240000 467.0
2.250000 353.0
2.260000 346.0
2.270000 231.0
2.280000 213.0
2.290000 156.0
2.300000 121.0
2.310000 86.0
2.320000 85.0
2.330000 50.0
2.340000 53.0
2.350000 50.0
2.360000 48.0
2.370000 44.0
2.380000 41.0
2.390000 55.0
2.400000 49.0
2.410000 46.0
2.420000 67.0
2.430000 50.0
2.440000 40.0
2.450000 38.0
2.460000 48.0
2.470000 32.0
2.480000 23.0
2.490000 34.0
2.500000 23.0
2.510000 11.0
2.520000 27.0
2.530000 9.0
2.540000 11.0
2.550000 13.0
2.560000 18.0
2.570000 8.0
2.580000 23.0
2.590000 10.0
2.600000 18.0
2.610000 19.0
2.620000 16.0
2.630000 21.0
2.640000 19.0
2.650000 20.0
2.660000 15.0
2.670000 14.0
2.680000 22.0
2.690000 15.0
2.700000 12.0
2.710000 15.0
2.720000 7.0
2.730000 7.0
2.740000 12.0
2.750000 8.0
2.760000 4.0
2.770000 4.0
2.780000 9.0
2.790000 11.0
2.800000 9.0
2.810000 17.0
2.820000 7.0
2.830000 13.0
2.840000 17.0
2.850000 10.0
2.860000 11.0
2.870000 6.0
2.880000 11.0
2.890000 9.0
2.900000 7.0
2.910000 6.0
2.920000 2.0
2.930000 7.0
2.940000 9.0
2.950000 2.0
2.960000 5.0
2.970000 3.0
2.980000 4.0
2.990000 5.0
3.000000 7.0
3.010000 4.0
3.020000 5.0
3.030000 6.0
3.040000 9.0
3.050000 5.0
3.060000 7.0
3.070000 9.0
3.080000 6.0
3.090000 3.0
3.100000 9.0
3.110000 6.0
3.120000 6.0
3.130000 4.0
3.140000 9.0
3.150000 3.0
3.160000 4.0
3.170000 4.0
3.180000 6.0
3.190000 3.0
3.200000 8.0
3.210000 4.0
3.220000 7.0
3.230000 7.0
3.240000 5.0
3.250000 4.0
3.260000 5.0
3.270000 7.0
3.280000 3.0
3.290000 7.0
3.300000 5.0
3.310000 3.0
3.320000 3.0
3.330000 7.0
3.340000 3.0
3.350000 4.0
3.360000 4.0
3.370000 2.0
3.380000 4.0
3.390000 5.0
3.400000 5.0
3.410000 7.0
3.420000 6.0
3.430000 5.0
3.440000 6.0
3.450000 6.0
3.460000 3.0
3.470000 3.0
3.480000 3.0
3.490000 2.0
3.500000 3.0
3.510000 5.0
3.520000 4.0
3.530000 5.0
3.540000 5.0
3.550000 4.0
3.560000 2.0
3.570000 1.0
3.580000 3.0
3.590000 2.0
3.600000 5.0
3.610000 5.0
3.620000 6.0
3.630000 8.0
3.640000 4.0
3.650000 5.0
3.660000 3.0
3.670000 7.0
3.680000 3.0
3.690000 3.0
3.700000 3.0
3.710000 3.0
3.720000 4.0
3.730000 2.0
3.740000 5.0
3.750000 3.0
3.760000 9.0
3.770000 11.0
3.780000 14.0
3.790000 13.0
3.800000 19.0
3.810000 18.0
3.820000 19.0
3.830000 19.0
3.840000 27.0
3.850000 21.0
3.860000 25.0
3.870000 20.0
3.880000 25.0
3.890000 16.0
3.900000 24.0
3.910000 23.0
3.920000 21.0
3.930000 15.0
3.940000 27.0
3.950000 22.0
3.960000 23.0
3.970000 14.0
3.980000 26.0
3.990000 20.0
4.000000 25.0
4.010000 23.0
4.020000 24.0
4.030000 24.0
4.040000 21.0
4.050000 20.0
4.060000 24.0
4.070000 20.0
4.080000 16.0
4.090000 11.0
4.100000 16.0
4.110000 8.0
4.120000 10.0
4.130000 8.0
4.140000 4.0
4.150000 9.0
4.160000 5.0
4.170000 5.0
4.180000 5.0
4.190000 6.0
4.200000 5.0
4.210000 1.0
4.220000 8.0
4.230000 5.0
4.240000 9.0
4.250000 11.0
4.260000 12.0
4.270000 8.0
4.280000 6.0
4.290000 7.0
4.300000 4.0
4.310000 6.0
4.320000 4.0
4.330000 4.0
4.340000 3.0
4.350000 2.0
4.360000 3.0
4.370000 2.0
4.380000 4.0
4.390000 4.0
4.400000 4.0
4.410000 5.0
4.420000 4.0
4.430000 5.0
4.440000 1.0
4.450000 1.0
4.460000 9.0
4.470000 2.0
4.480000 6.0
4.490000 4.0
4.500000 7.0
4.510000 2.0
4.520000 5.0
