0.20950 128.0
0.21450 132.0
0.21950 148.0
0.22450 178.0
0.22950 174.0
0.23450 155.0
0.23950 143.0
0.24450 133.0
0.24950 120.0
0.25450 180.0
0.25950 128.0
0.26450 134.0
0.26950 99.0
0.27450 117.0
0.27950 121.0
0.28450 131.0
0.28950 136.0
0.29450 128.0
0.29950 135.0
0.30450 143.0
0.30950 142.0
0.31450 137.0
0.31950 109.0
0.32450 141.0
0.32950 111.0
0.33450 125.0
0.33950 165.0
0.34450 161.0
0.34950 137.0
0.35450 148.0
0.35950 142.0
0.36450 139.0
0.36950 110.0
0.37450 156.0
0.37950 147.0
0.38450 125.0
0.38950 147.0
0.39450 173.0
0.39950 169.0
0.40450 169.0
0.40950 176.0
0.41450 155.0
0.41950 207.0
0.42450 193.0
0.42950 206.0
0.43450 181.0
0.43950 217.0
0.44450 237.0
0.44950 224.0
0.45450 231.0
0.45950 231.0
0.46450 235.0
0.46950 263.0
0.47450 258.0
0.47950 274.0
0.48450 263.0
0.48950 278.0
0.49450 331.0
0.49950 330.0
0.50450 329.0
0.50950 315.0
0.51450 358.0
0.51950 352.0
0.52450 366.0
0.52950 380.0
0.53450 380.0
0.53950 428.0
0.54450 380.0
0.54950 398.0
0.55450 425.0
0.55950 512.0
0.56450 455.0
0.56950 447.0
0.57450 458.0
0.57950 491.0
0.58450 461.0
0.58950 460.0
0.59450 473.0
0.59950 486.0
0.60450 498.0
0.60950 535.0
0.61450 538.0
0.61950 531.0
0.62450 516.0
0.62950 557.0
0.63450 571.0
0.63950 592.0
0.64450 541.0
0.64950 592.0
0.65450 615.0
0.65950 630.0
0.66450 613.0
0.66950 589.0
0.67450 661.0
0.67950 698.0
0.68450 685.0
0.68950 663.0
0.69450 656.0
0.69950 637.0
0.70450 670.0
0.70950 651.0
0.71450 712.0
0.71950 708.0
0.72450 692.0
0.72950 731.0
0.73450 686.0
0.73950 669.0
0.74450 643.0
0.74950 672.0
0.75450 602.0
0.75950 691.0
0.76450 672.0
0.76950 714.0
0.77450 756.0
0.77950 732.0
0.78450 715.0
0.78950 748.0
0.79450 733.0
0.79950 687.0
0.80450 732.0
0.80950 670.0
0.81450 724.0
0.81950 775.0
0.82450 753.0
0.82950 726.0
0.83450 741.0
0.83950 686.0
0.84450 737.0
0.84950 731.0
0.85450 790.0
0.85950 799.0
0.86450 826.0
0.86950 747.0
0.87450 767.0
0.87950 729.0
0.88450 834.0
0.88950 877.0
0.89450 713.0
0.89950 794.0
0.90450 814.0
0.90950 852.0
0.91450 814.0
0.91950 800.0
0.92450 821.0
0.92950 831.0
0.93450 789.0
0.93950 772.0
0.94450 780.0
0.94950 819.0
0.95450 824.0
0.95950 860.0
0.96450 760.0
0.96950 823.0
0.97450 775.0
0.97950 795.0
0.98450 781.0
0.98950 724.0
0.99450 763.0
0.99950 746.0
1.00450 772.0
1.00950 756.0
1.01450 782.0
1.01950 760.0
1.02450 846.0
1.02950 821.0
1.03450 771.0
1.03950 824.0
1.04450 788.0
1.04950 762.0
1.05450 799.0
1.05950 765.0
1.06450 795.0
1.06950 854.0
1.07450 764.0
1.07950 860.0
1.08450 853.0
1.08950 862.0
1.09450 913.0
1.09950 860.0
1.10450 886.0
1.10950 846.0
1.11450 871.0
1.11950 833.0
1.12450 903.0
1.12950 845.0
1.13450 928.0
1.13950 970.0
1.14450 980.0
1.14950 1050.0
1.15450 1080.0
1.15950 1040.0
1.16450 1200.0
1.16950 1396.0
1.17450 2366.0
1.17950 5227.0
1.18450 11711.0
1.18950 25465.0
1.19450 56910.0
1.19950 90133.0
1.20450 105518.0
1.20950 114000.0
1.21450 112756.0
1.21950 88394.0
1.22450 50297.0
1.22950 17030.0
1.23450 4023.0
1.23950 1781.0
1.24450 1405.0
1.24950 1253.0
1.25450 1230.0
1.25950 1065.0
1.26450 999.0
1.26950 980.0
1.27450 964.0
1.27950 952.0
1.28450 826.0
1.28950 856.0
1.29450 868.0
1.29950 846.0
1.30450 766.0
1.30950 814.0
1.31450 880.0
1.31950 802.0
1.32450 762.0
1.32950 808.0
1.33450 771.0
1.33950 769.0
1.34450 756.0
1.34950 737.0
1.35450 747.0
1.35950 744.0
1.36450 652.0
1.36950 663.0
1.37450 683.0
1.37950 670.0
1.38450 738.0
1.38950 669.0
1.39450 713.0
1.39950 695.0
1.40450 669.0
1.40950 697.0
1.41450 683.0
1.41950 677.0
1.42450 670.0
1.42950 659.0
1.43450 678.0
1.43950 608.0
1.44450 660.0
1.44950 659.0
1.45450 643.0
1.45950 577.0
1.46450 582.0
1.46950 605.0
1.47450 625.0
1.47950 637.0
1.48450 590.0
1.48950 572.0
1.49450 554.0
1.49950 580.0
1.50450 581.0
1.50950 577.0
1.51450 546.0
1.51950 551.0
1.52450 590.0
1.52950 622.0
1.53450 629.0
1.53950 564.0
1.54450 588.0
1.54950 589.0
1.55450 660.0
1.55950 586.0
1.56450 555.0
1.56950 594.0
1.57450 577.0
1.57950 613.0
1.58450 593.0
1.58950 608.0
1.59450 508.0
1.59950 468.0
1.60450 510.0
1.60950 525.0
1.61450 467.0
1.61950 484.0
1.62450 458.0
1.62950 472.0
1.63450 536.0
1.63950 536.0
1.64450 502.0
1.64950 512.0
1.65450 486.0
1.65950 527.0
1.66450 460.0
1.66950 420.0
1.67450 442.0
1.67950 409.0
1.68450 436.0
1.68950 429.0
1.69450 412.0
1.69950 424.0
1.70450 412.0
1.70950 396.0
1.71450 395.0
1.71950 377.0
1.72450 431.0
1.72950 404.0
1.73450 358.0
1.73950 359.0
1.74450 352.0
1.74950 347.0
1.75450 321.0
1.75950 322.0
1.76450 317.0
1.76950 355.0
1.77450 317.0
1.77950 341.0
1.78450 342.0
1.78950 350.0
1.79450 293.0
1.79950 341.0
1.80450 318.0
1.80950 289.0
1.81450 284.0
1.81950 316.0
1.82450 284.0
1.82950 281.0
1.83450 273.0
1.83950 300.0
1.84450 263.0
1.84950 262.0
1.85450 273.0
1.85950 254.0
1.86450 233.0
1.86950 258.0
1.87450 218.0
1.87950 210.0
1.88450 193.0
1.88950 225.0
1.89450 237.0
1.89950 202.0
1.90450 186.0
1.90950 223.0
1.91450 191.0
1.91950 179.0
1.92450 177.0
1.92950 161.0
1.93450 175.0
1.93950 172.0
1.94450 134.0
1.94950 157.0
1.95450 148.0
1.95950 130.0
1.96450 132.0
1.96950 143.0
1.97450 146.0
1.97950 150.0
1.98450 169.0
1.98950 153.0
1.99450 152.0
1.99950 150.0
2.00450 131.0
2.00950 108.0
2.01450 120.0
2.01950 123.0
2.02450 173.0
2.02950 159.0
2.03450 153.0
2.03950 136.0
2.04450 169.0
2.04950 168.0
2.05450 130.0
2.05950 151.0
2.06450 119.0
2.06950 129.0
2.07450 113.0
2.07950 184.0
2.08450 120.0
2.08950 172.0
2.09450 122.0
2.09950 133.0
2.10450 118.0
2.10950 102.0
2.11450 117.0
2.11950 113.0
2.12450 117.0
2.12950 136.0
2.13450 143.0
2.13950 144.0
2.14450 162.0
2.14950 141.0
2.15450 191.0
2.15950 222.0
2.16450 152.0
2.16950 141.0
2.17450 120.0
2.17950 112.0
2.18450 93.0
2.18950 128.0
2.19450 86.0
2.19950 90.0
