0.00500 14184846.0
0.01500 15532832.0
0.02500 13163377.0
0.03500 10031778.0
0.04500 6465449.0
0.05500 3490563.0
0.06500 2018693.0
0.07500 1586517.0
0.08500 1634098.0
0.09500 1795022.0
0.10500 1954913.0
0.11500 2127315.0
0.12500 2299205.0
0.13500 2480082.0
0.14500 2639870.0
0.15500 2791507.0
0.16500 2946150.0
0.17500 3125603.0
0.18500 3270906.0
0.19500 3433501.0
0.20500 3569453.0
0.21500 3750205.0
0.22500 3932511.0
0.23500 4074559.0
0.24500 4193255.0
0.25500 4339834.0
0.26500 4472619.0
0.27500 4598887.0
0.28500 4723576.0
0.29500 4870174.0
0.30500 5011916.0
0.31500 5166405.0
0.32500 5265246.0
0.33500 5432780.0
0.34500 5594221.0
0.35500 5716366.0
0.36500 5807339.0
0.37500 5903563.0
0.38500 6004673.0
0.39500 6121966.0
0.40500 6236769.0
0.41500 6353507.0
0.42500 6271623.0
0.43500 5576222.0
0.44500 4286308.0
0.45500 2951200.0
0.46500 2114543.0
0.47500 1613571.0
0.48500 1234790.0
0.49500 1012148.0
0.50500 909149.0
0.51500 829385.0
0.52500 733830.0
0.53500 623038.0
0.54500 522762.0
0.55500 452202.0
0.56500 411901.0
0.57500 384193.0
0.58500 366230.0
0.59500 344514.0
0.60500 316770.0
0.61500 286016.0
0.62500 251869.0
0.63500 223637.0
0.64500 202856.0
0.65500 189564.0
0.66500 181472.0
0.67500 175810.0
0.68500 169747.0
0.69500 160234.0
0.70500 149575.0
0.71500 136934.0
0.72500 123608.0
0.73500 111488.0
0.74500 102526.0
0.75500 97085.0
0.76500 93246.0
0.77500 91390.0
0.78500 89095.0
0.79500 85994.0
0.80500 83081.0
0.81500 77705.0
0.82500 70900.0
0.83500 65252.0
0.84500 60335.0
0.85500 56891.0
0.86500 53838.0
0.87500 52314.0
0.88500 51640.0
0.89500 51384.0
0.90500 50363.0
0.91500 48909.0
0.92500 46860.0
0.93500 44022.0
0.94500 40545.0
0.95500 37513.0
0.96500 34769.0
0.97500 33342.0
0.98500 31487.0
0.99500 30886.0
1.00500 30664.0
1.01500 30451.0
1.02500 30013.0
1.03500 29324.0
1.04500 27773.0
1.05500 26350.0
1.06500 24533.0
1.07500 22813.0
1.08500 21165.0
1.09500 20189.0
1.10500 19654.0
1.11500 19301.0
1.12500 19054.0
1.13500 19464.0
1.14500 19173.0
1.15500 18316.0
1.16500 17814.0
1.17500 17575.0
1.18500 16112.0
1.19500 15109.0
1.20500 14098.0
1.21500 13494.0
1.22500 12670.0
1.23500 12675.0
1.24500 12613.0
1.25500 12587.0
1.26500 12862.0
1.27500 12344.0
1.28500 11922.0
1.29500 11453.0
1.30500 10853.0
1.31500 10138.0
1.32500 9699.0
1.33500 9279.0
1.34500 8937.0
1.35500 8780.0
1.36500 8584.0
1.37500 8531.0
1.38500 8535.0
1.39500 8530.0
1.40500 8625.0
1.41500 8158.0
1.42500 7657.0
1.43500 7451.0
1.44500 6781.0
1.45500 6499.0
1.46500 6246.0
1.47500 6179.0
1.48500 5757.0
1.49500 5848.0
1.50500 6000.0
1.51500 5871.0
1.52500 5985.0
1.53500 5933.0
1.54500 5797.0
1.55500 5548.0
1.56500 5311.0
1.57500 4920.0
1.58500 4594.0
1.59500 4380.0
1.60500 4306.0
1.61500 4284.0
1.62500 4262.0
1.63500 4331.0
1.64500 4473.0
1.65500 4389.0
1.66500 4385.0
1.67500 4214.0
1.68500 3905.0
1.69500 3812.0
1.70500 3435.0
1.71500 3359.0
1.72500 3263.0
1.73500 3222.0
1.74500 3115.0
1.75500 3069.0
1.76500 3182.0
1.77500 3201.0
1.78500 3121.0
1.79500 3135.0
1.80500 3034.0
1.81500 2824.0
1.82500 2725.0
1.83500 2751.0
1.84500 2569.0
1.85500 2454.0
1.86500 2330.0
1.87500 2376.0
1.88500 2353.0
1.89500 2397.0
1.90500 2369.0
1.91500 2365.0
1.92500 2296.0
1.93500 2193.0
1.94500 2195.0
1.95500 1983.0
1.96500 1864.0
1.97500 1770.0
1.98500 1822.0
1.99500 1771.0
2.00500 1678.0
2.01500 1675.0
2.02500 1656.0
2.03500 1735.0
2.04500 1804.0
2.05500 1819.0
2.06500 1758.0
2.07500 1653.0
2.08500 1452.0
2.09500 1374.0
2.10500 1364.0
2.11500 1318.0
2.12500 1275.0
2.13500 1299.0
2.14500 1280.0
2.15500 1311.0
2.16500 1363.0
2.17500 1389.0
2.18500 1443.0
2.19500 1340.0
2.20500 1308.0
2.21500 1164.0
2.22500 1155.0
2.23500 1044.0
2.24500 1102.0
2.25500 986.0
2.26500 1009.0
2.27500 1008.0
2.28500 1060.0
2.29500 1055.0
2.30500 974.0
2.31500 1081.0
2.32500 1048.0
2.33500 980.0
2.34500 940.0
2.35500 917.0
2.36500 904.0
2.37500 946.0
2.38500 893.0
2.39500 906.0
2.40500 900.0
2.41500 898.0
2.42500 919.0
2.43500 855.0
2.44500 854.0
2.45500 856.0
2.46500 856.0
2.47500 717.0
2.48500 699.0
2.49500 648.0
2.50500 739.0
2.51500 643.0
2.52500 602.0
2.53500 707.0
2.54500 735.0
2.55500 693.0
2.56500 717.0
2.57500 728.0
2.58500 698.0
2.59500 743.0
2.60500 754.0
2.61500 713.0
2.62500 588.0
2.63500 536.0
2.64500 581.0
2.65500 553.0
2.66500 614.0
2.67500 694.0
2.68500 659.0
2.69500 740.0
2.70500 752.0
2.71500 739.0
2.72500 653.0
2.73500 594.0
2.74500 536.0
2.75500 501.0
2.76500 473.0
2.77500 403.0
2.78500 392.0
2.79500 350.0
2.80500 443.0
2.81500 455.0
2.82500 496.0
2.83500 429.0
2.84500 483.0
