0.00500 29206296.0
0.01500 33577284.0
0.02500 29520616.0
0.03500 23238642.0
0.04500 16694794.0
0.05500 10080276.0
0.06500 5737490.0
0.07500 4111045.0
0.08500 3997845.0
0.09500 4353105.0
0.10500 4796639.0
0.11500 5219717.0
0.12500 5662764.0
0.13500 6067865.0
0.14500 6503525.0
0.15500 6931121.0
0.16500 7302366.0
0.17500 7708458.0
0.18500 8108011.0
0.19500 8519727.0
0.20500 8927395.0
0.21500 9267322.0
0.22500 9648369.0
0.23500 10031212.0
0.24500 10415804.0
0.25500 10806654.0
0.26500 11130143.0
0.27500 11508751.0
0.28500 11905465.0
0.29500 12232015.0
0.30500 12568792.0
0.31500 12826412.0
0.32500 13276491.0
0.33500 13529460.0
0.34500 13849212.0
0.35500 14111701.0
0.36500 14413737.0
0.37500 14795360.0
0.38500 15079162.0
0.39500 15395835.0
0.40500 15649935.0
0.41500 15854463.0
0.42500 15584230.0
0.43500 13963549.0
0.44500 10912689.0
0.45500 7858601.0
0.46500 5534133.0
0.47500 4047381.0
0.48500 3162252.0
0.49500 2690889.0
0.50500 2415788.0
0.51500 2123218.0
0.52500 1790990.0
0.53500 1500901.0
0.54500 1285700.0
0.55500 1151546.0
0.56500 1078068.0
0.57500 1018030.0
0.58500 954006.0
0.59500 859943.0
0.60500 759225.0
0.61500 672116.0
0.62500 600066.0
0.63500 547239.0
0.64500 514578.0
0.65500 491450.0
0.66500 474038.0
0.67500 457173.0
0.68500 429763.0
0.69500 394910.0
0.70500 356131.0
0.71500 319182.0
0.72500 291616.0
0.73500 273932.0
0.74500 261996.0
0.75500 253022.0
0.76500 247926.0
0.77500 239205.0
0.78500 227917.0
0.79500 212359.0
0.80500 196611.0
0.81500 180188.0
0.82500 166031.0
0.83500 156696.0
0.84500 148793.0
0.85500 144645.0
0.86500 140976.0
0.87500 139238.0
0.88500 135250.0
0.89500 129604.0
0.90500 121836.0
0.91500 112950.0
0.92500 103909.0
0.93500 97538.0
0.94500 91757.0
0.95500 88079.0
0.96500 86029.0
0.97500 84013.0
0.98500 82823.0
0.99500 80253.0
1.00500 78603.0
1.01500 74860.0
1.02500 69974.0
1.03500 65463.0
1.04500 61504.0
1.05500 58157.0
1.06500 55693.0
1.07500 53488.0
1.08500 52719.0
1.09500 52942.0
1.10500 51297.0
1.11500 50903.0
1.12500 48961.0
1.13500 46921.0
1.14500 43681.0
1.15500 41358.0
1.16500 38514.0
1.17500 37092.0
1.18500 35370.0
1.19500 34619.0
1.20500 34149.0
1.21500 34501.0
1.22500 33916.0
1.23500 32931.0
1.24500 32239.0
1.25500 30386.0
1.26500 28996.0
1.27500 26993.0
1.28500 25914.0
1.29500 24659.0
1.30500 23906.0
1.31500 23607.0
1.32500 23461.0
1.33500 23170.0
1.34500 23188.0
1.35500 22683.0
1.36500 21991.0
1.37500 21434.0
1.38500 19875.0
1.39500 18981.0
1.40500 17540.0
1.41500 16558.0
1.42500 16388.0
1.43500 15732.0
1.44500 15955.0
1.45500 15733.0
1.46500 15856.0
1.47500 15680.0
1.48500 15103.0
1.49500 14731.0
1.50500 13828.0
1.51500 12961.0
1.52500 12527.0
1.53500 11917.0
1.54500 11586.0
1.55500 11259.0
1.56500 11113.0
1.57500 11121.0
1.58500 11276.0
1.59500 11328.0
1.60500 11407.0
1.61500 10684.0
1.62500 10092.0
1.63500 9358.0
1.64500 8917.0
1.65500 8575.0
1.66500 8090.0
1.67500 8348.0
1.68500 7953.0
1.69500 8026.0
1.70500 8231.0
1.71500 8129.0
1.72500 8339.0
1.73500 7836.0
1.74500 7585.0
1.75500 7192.0
1.76500 6805.0
1.77500 6492.0
1.78500 6215.0
1.79500 6070.0
1.80500 6172.0
1.81500 6029.0
1.82500 6100.0
1.83500 6209.0
1.84500 6190.0
1.85500 6087.0
1.86500 5804.0
1.87500 5612.0
1.88500 5149.0
1.89500 5002.0
1.90500 4765.0
1.91500 4605.0
1.92500 4644.0
1.93500 4432.0
1.94500 4534.0
1.95500 4654.0
1.96500 4555.0
1.97500 4693.0
1.98500 4518.0
1.99500 4452.0
2.00500 4120.0
2.01500 3935.0
2.02500 3710.0
2.03500 3625.0
2.04500 3472.0
2.05500 3388.0
2.06500 3355.0
2.07500 3555.0
2.08500 3490.0
2.09500 3643.0
2.10500 3507.0
2.11500 3405.0
2.12500 3223.0
2.13500 3056.0
2.14500 2878.0
2.15500 2726.0
2.16500 2665.0
2.17500 2529.0
2.18500 2660.0
2.19500 2667.0
2.20500 2678.0
2.21500 2596.0
2.22500 2743.0
2.23500 2685.0
2.24500 2525.0
2.25500 2488.0
2.26500 2296.0
2.27500 2210.0
2.28500 2016.0
2.29500 2035.0
2.30500 2009.0
2.31500 2066.0
2.32500 2082.0
2.33500 2214.0
2.34500 2229.0
2.35500 2228.0
2.36500 2107.0
2.37500 2041.0
2.38500 1812.0
2.39500 1904.0
2.40500 1698.0
2.41500 1536.0
2.42500 1561.0
2.43500 1531.0
2.44500 1618.0
2.45500 1571.0
2.46500 1621.0
2.47500 1699.0
2.48500 1671.0
2.49500 1635.0
2.50500 1607.0
2.51500 1565.0
2.52500 1450.0
2.53500 1320.0
2.54500 1377.0
2.55500 1229.0
2.56500 1356.0
2.57500 1352.0
2.58500 1375.0
2.59500 1445.0
2.60500 1426.0
2.61500 1400.0
2.62500 1350.0
2.63500 1277.0
2.64500 1160.0
2.65500 1153.0
2.66500 1152.0
2.67500 1053.0
2.68500 1034.0
2.69500 1089.0
2.70500 1142.0
2.71500 1167.0
2.72500 1150.0
2.73500 1167.0
2.74500 1201.0
2.75500 1059.0
2.76500 1062.0
2.77500 983.0
2.78500 998.0
2.79500 886.0
2.80500 875.0
2.81500 908.0
2.82500 873.0
2.83500 915.0
2.84500 978.0
2.85500 984.0
2.86500 947.0
2.87500 922.0
2.88500 910.0
2.89500 824.0
2.90500 777.0
2.91500 736.0
2.92500 676.0
2.93500 696.0
2.94500 747.0
2.95500 778.0
2.96500 709.0
2.97500 777.0
2.98500 820.0
2.99500 791.0
3.00500 755.0
3.01500 689.0
3.02500 645.0
3.03500 616.0
3.04500 609.0
3.05500 620.0
3.06500 612.0
3.07500 612.0
3.08500 622.0
3.09500 676.0
3.10500 669.0
3.11500 663.0
3.12500 659.0
3.13500 623.0
3.14500 601.0
3.15500 595.0
3.16500 527.0
3.17500 524.0
3.18500 515.0
3.19500 538.0
3.20500 507.0
3.21500 565.0
3.22500 554.0
3.23500 596.0
3.24500 530.0
3.25500 549.0
3.26500 501.0
3.27500 520.0
3.28500 486.0
3.29500 437.0
3.30500 407.0
3.31500 392.0
3.32500 369.0
3.33500 415.0
3.34500 370.0
3.35500 455.0
3.36500 443.0
3.37500 417.0
3.38500 428.0
3.39500 431.0
3.40500 400.0
3.41500 387.0
3.42500 380.0
3.43500 325.0
3.44500 368.0
3.45500 334.0
3.46500 359.0
3.47500 362.0
3.48500 389.0
3.49500 386.0
3.50500 399.0
3.51500 413.0
3.52500 412.0
3.53500 441.0
3.54500 354.0
3.55500 358.0
3.56500 309.0
3.57500 283.0
3.58500 296.0
3.59500 282.0
3.60500 339.0
3.61500 312.0
3.62500 417.0
3.63500 359.0
3.64500 407.0
3.65500 377.0
3.66500 346.0
3.67500 277.0
3.68500 316.0
3.69500 336.0
3.70500 257.0
3.71500 314.0
3.72500 304.0
3.73500 302.0
3.74500 328.0
3.75500 297.0
3.76500 348.0
3.77500 337.0
3.78500 299.0
3.79500 273.0
3.80500 235.0
3.81500 235.0
3.82500 246.0
3.83500 222.0
3.84500 251.0
3.85500 244.0
3.86500 276.0
3.87500 293.0
3.88500 273.0
3.89500 242.0
3.90500 293.0
3.91500 255.0
3.92500 225.0
3.93500 187.0
3.94500 213.0
3.95500 210.0
3.96500 233.0
3.97500 206.0
3.98500 230.0
3.99500 245.0
4.00500 225.0
4.01500 198.0
4.02500 210.0
4.03500 213.0
4.04500 187.0
4.05500 215.0
4.06500 168.0
4.07500 156.0
4.08500 160.0
4.09500 154.0
4.10500 146.0
4.11500 167.0
4.12500 151.0
4.13500 175.0
4.14500 224.0
4.15500 167.0
4.16500 173.0
4.17500 173.0
4.18500 140.0
4.19500 144.0
4.20500 172.0
4.21500 120.0
4.22500 123.0
4.23500 156.0
4.24500 152.0
4.25500 152.0
4.26500 169.0
4.27500 143.0
4.28500 148.0
4.29500 145.0
4.30500 152.0
4.31500 137.0
4.32500 144.0
4.33500 137.0
4.34500 142.0
4.35500 112.0
4.36500 125.0
4.37500 150.0
4.38500 140.0
4.39500 138.0
4.40500 140.0
4.41500 153.0
4.42500 175.0
4.43500 120.0
4.44500 109.0
4.45500 111.0
4.46500 87.0
4.47500 99.0
4.48500 96.0
4.49500 106.0
4.50500 108.0
4.51500 130.0
4.52500 129.0
4.53500 132.0
4.54500 148.0
4.55500 145.0
4.56500 126.0
4.57500 127.0
4.58500 95.0
4.59500 143.0
4.60500 126.0
4.61500 141.0
4.62500 122.0
4.63500 192.0
4.64500 158.0
4.65500 150.0
4.66500 154.0
4.67500 151.0
4.68500 134.0
4.69500 100.0
4.70500 123.0
4.71500 95.0
4.72500 110.0
4.73500 112.0
4.74500 95.0
4.75500 119.0
4.76500 112.0
4.77500 142.0
4.78500 92.0
4.79500 114.0
4.80500 109.0
4.81500 85.0
4.82500 92.0
4.83500 122.0
4.84500 97.0
4.85500 117.0
4.86500 105.0
4.87500 82.0
4.88500 81.0
4.89500 92.0
4.90500 99.0
4.91500 119.0
4.92500 109.0
4.93500 108.0
4.94500 128.0
4.95500 97.0
4.96500 80.0
4.97500 95.0
4.98500 78.0
4.99500 116.0
