0.800000 853776.0
0.810000 897756.0
0.820000 858958.0
0.830000 844745.0
0.840000 768077.0
0.850000 684260.0
0.860000 569572.0
0.870000 472106.0
0.880000 396019.0
0.890000 342927.0
0.900000 294523.0
0.910000 260917.0
0.920000 231072.0
0.930000 208666.0
0.940000 185675.0
0.950000 170982.0
0.960000 154213.0
0.970000 142657.0
0.980000 129025.0
0.990000 120895.0
1.000000 109826.0
1.010000 102913.0
1.020000 93758.0
1.030000 89222.0
1.040000 81853.0
1.050000 76784.0
1.060000 70384.0
1.070000 67340.0
1.080000 61802.0
1.090000 59195.0
1.100000 54196.0
1.110000 51802.0
1.120000 48488.0
1.130000 46483.0
1.140000 43472.0
1.150000 41698.0
1.160000 39363.0
1.170000 38142.0
1.180000 35457.0
1.190000 35006.0
1.200000 32292.0
1.210000 31862.0
1.220000 29378.0
1.230000 28900.0
1.240000 26634.0
1.250000 26309.0
1.260000 24461.0
1.270000 24056.0
1.280000 22530.0
1.290000 22112.0
1.300000 20535.0
1.310000 20678.0
1.320000 19600.0
1.330000 19460.0
1.340000 18279.0
1.350000 17849.0
1.360000 16952.0
1.370000 16718.0
1.380000 15977.0
1.390000 15426.0
1.400000 14860.0
1.410000 14787.0
1.420000 13806.0
1.430000 13853.0
1.440000 13156.0
1.450000 12905.0
1.460000 12299.0
1.470000 12477.0
1.480000 11664.0
1.490000 11513.0
1.500000 11130.0
1.510000 11004.0
1.520000 10323.0
1.530000 10568.0
1.540000 10080.0
1.550000 9980.0
1.560000 9761.0
1.570000 9467.0
1.580000 8911.0
1.590000 9006.0
1.600000 8855.0
1.610000 8668.0
1.620000 8372.0
1.630000 8409.0
1.640000 8190.0
1.650000 8100.0
1.660000 7762.0
1.670000 7868.0
1.680000 7344.0
1.690000 7621.0
1.700000 7413.0
1.710000 7517.0
1.720000 7022.0
1.730000 7430.0
1.740000 6922.0
1.750000 7106.0
1.760000 7039.0
1.770000 7242.0
1.780000 6806.0
1.790000 6972.0
1.800000 7039.0
1.810000 6906.0
1.820000 6757.0
1.830000 7140.0
1.840000 6906.0
1.850000 7073.0
1.860000 6972.0
1.870000 7310.0
1.880000 7106.0
1.890000 7362.0
1.900000 7293.0
1.910000 7674.0
1.920000 7362.0
1.930000 7974.0
1.940000 8100.0
1.950000 8245.0
1.960000 8464.0
1.970000 9025.0
1.980000 9351.0
1.990000 9920.0
2.000000 10282.0
2.010000 11492.0
2.020000 11968.0
2.030000 13386.0
2.040000 14328.0
2.050000 16770.0
2.060000 18387.0
2.070000 22710.0
2.080000 27126.0
2.090000 36290.0
2.100000 45710.0
2.110000 70543.0
2.120000 105495.0
2.130000 199005.0
2.140000 291168.0
2.150000 426148.0
2.160000 488042.0
2.170000 497448.0
2.180000 435600.0
2.190000 322170.0
2.200000 218930.0
2.210000 133517.0
2.220000 80259.0
2.230000 50310.0
2.240000 29002.0
2.250000 21025.0
2.260000 14161.0
2.270000 10941.0
2.280000 7552.0
2.290000 6545.0
2.300000 4886.0
2.310000 3969.0
2.320000 3170.0
2.330000 2756.0
2.340000 2218.0
2.350000 1945.0
2.360000 1632.0
2.370000 1436.0
2.380000 1253.0
2.390000 1129.0
2.400000 1030.0
2.410000 912.0
2.420000 756.0
2.430000 734.0
2.440000 645.0
2.450000 605.0
2.460000 595.0
2.470000 571.0
2.480000 462.0
2.490000 458.0
2.500000 441.0
2.510000 380.0
2.520000 388.0
2.530000 350.0
2.540000 357.0
2.550000 310.0
2.560000 279.0
2.570000 289.0
2.580000 276.0
2.590000 262.0
2.600000 199.0
2.610000 222.0
2.620000 199.0
2.630000 222.0
2.640000 202.0
2.650000 204.0
2.660000 193.0
2.670000 185.0
2.680000 151.0
2.690000 154.0
2.700000 146.0
2.710000 161.0
2.720000 144.0
2.730000 146.0
2.740000 130.0
2.750000 156.0
2.760000 117.0
2.770000 117.0
2.780000 121.0
2.790000 121.0
2.800000 114.0
2.810000 117.0
2.820000 114.0
2.830000 108.0
2.840000 104.0
2.850000 114.0
2.860000 117.0
2.870000 106.0
2.880000 94.0
2.890000 106.0
2.900000 85.0
2.910000 96.0
2.920000 98.0
2.930000 85.0
2.940000 86.0
2.950000 77.0
2.960000 66.0
2.970000 76.0
2.980000 81.0
2.990000 76.0
3.000000 69.0
3.010000 74.0
3.020000 56.0
3.030000 79.0
3.040000 59.0
3.050000 62.0
3.060000 66.0
3.070000 53.0
3.080000 61.0
3.090000 48.0
3.100000 48.0
3.110000 58.0
3.120000 53.0
3.130000 46.0
3.140000 44.0
3.150000 48.0
3.160000 36.0
3.170000 46.0
3.180000 38.0
3.190000 32.0
3.200000 30.0
3.210000 38.0
3.220000 38.0
3.230000 44.0
3.240000 44.0
3.250000 36.0
3.260000 28.0
3.270000 52.0
3.280000 41.0
3.290000 32.0
3.300000 28.0
3.310000 28.0
3.320000 30.0
3.330000 29.0
3.340000 34.0
3.350000 32.0
3.360000 34.0
3.370000 26.0
3.380000 25.0
3.390000 26.0
3.400000 36.0
3.410000 24.0
3.420000 16.0
3.430000 30.0
3.440000 28.0
3.450000 30.0
3.460000 14.0
3.470000 21.0
3.480000 18.0
3.490000 22.0
3.500000 26.0
3.510000 20.0
3.520000 19.0
3.530000 14.0
3.540000 13.0
3.550000 14.0
3.560000 12.0
3.570000 22.0
3.580000 17.0
3.590000 17.0
3.600000 11.0
3.610000 16.0
3.620000 11.0
3.630000 9.0
3.640000 11.0
3.650000 11.0
3.660000 8.0
3.670000 13.0
3.680000 13.0
3.690000 11.0
3.700000 4.0
3.710000 8.0
3.720000 11.0
3.730000 4.0
3.740000 8.0
3.750000 10.0
3.760000 8.0
3.770000 5.0
3.780000 7.0
3.790000 7.0
3.800000 16.0
3.810000 11.0
3.820000 15.0
3.830000 19.0
3.840000 22.0
3.850000 29.0
3.860000 41.0
3.870000 50.0
3.880000 62.0
3.890000 90.0
3.900000 106.0
3.910000 151.0
3.920000 225.0
3.930000 441.0
3.940000 745.0
3.950000 1632.0
3.960000 2421.0
3.970000 3516.0
3.980000 4134.0
3.990000 4264.0
4.000000 3844.0
4.010000 3036.0
4.020000 2294.0
4.030000 1616.0
4.040000 1050.0
4.050000 686.0
4.060000 400.0
4.070000 313.0
4.080000 243.0
4.090000 174.0
4.100000 177.0
4.110000 151.0
4.120000 125.0
4.130000 117.0
4.140000 100.0
4.150000 92.0
4.160000 86.0
4.170000 66.0
4.180000 74.0
4.190000 55.0
4.200000 52.0
4.210000 49.0
4.220000 55.0
4.230000 35.0
4.240000 40.0
4.250000 31.0
4.260000 56.0
4.270000 40.0
4.280000 27.0
4.290000 32.0
4.300000 36.0
4.310000 21.0
4.320000 16.0
4.330000 28.0
4.340000 29.0
4.350000 26.0
4.360000 31.0
4.370000 26.0
4.380000 23.0
4.390000 21.0
4.400000 22.0
4.410000 15.0
4.420000 19.0
4.430000 14.0
4.440000 16.0
4.450000 12.0
4.460000 9.0
4.470000 10.0
4.480000 13.0
4.490000 10.0
4.500000 18.0
4.510000 21.0
4.520000 10.0
4.530000 11.0
4.540000 12.0
4.550000 11.0
4.560000 14.0
4.570000 17.0
4.580000 11.0
4.590000 6.0
4.600000 11.0
4.610000 9.0
4.620000 17.0
4.630000 9.0
4.640000 9.0
4.650000 7.0
4.660000 8.0
4.670000 12.0
4.680000 4.0
4.690000 8.0
4.700000 7.0
4.710000 12.0
4.720000 13.0
4.730000 10.0
4.740000 12.0
4.750000 9.0
4.760000 12.0
4.770000 5.0
4.780000 10.0
4.790000 7.0
4.800000 6.0
4.810000 7.0
4.820000 6.0
4.830000 9.0
4.840000 7.0
4.850000 11.0
4.860000 7.0
4.870000 5.0
4.880000 6.0
4.890000 7.0
4.900000 3.0
4.910000 7.0
4.920000 6.0
4.930000 2.0
4.940000 6.0
4.950000 5.0
4.960000 5.0
4.970000 11.0
4.980000 9.0
4.990000 2.0
5.000000 3.0
5.010000 5.0
5.020000 7.0
5.030000 4.0
5.040000 10.0
5.050000 10.0
5.060000 12.0
5.070000 9.0
5.080000 4.0
5.090000 2.0
5.100000 6.0
5.110000 5.0
5.120000 4.0
5.130000 11.0
5.140000 6.0
5.150000 9.0
5.160000 8.0
5.170000 3.0
5.180000 3.0
5.190000 7.0
5.200000 2.0
5.210000 3.0
5.220000 3.0
5.230000 9.0
5.240000 4.0
5.250000 6.0
5.260000 2.0
5.270000 6.0
5.280000 8.0
5.290000 7.0
5.300000 3.0
5.310000 5.0
5.320000 4.0
5.330000 4.0
5.340000 4.0
5.350000 6.0
5.360000 7.0
5.370000 5.0
5.380000 6.0
5.390000 5.0
5.400000 7.0
5.410000 8.0
5.420000 2.0
5.430000 5.0
5.440000 4.0
5.450000 6.0
5.460000 10.0
5.470000 5.0
5.480000 4.0
5.490000 5.0
5.500000 8.0
5.510000 7.0
5.520000 2.0
5.530000 3.0
5.540000 7.0
5.550000 4.0
5.560000 4.0
5.570000 2.0
5.580000 7.0
5.590000 11.0
5.600000 9.0
5.610000 7.0
5.620000 13.0
5.630000 12.0
5.640000 13.0
5.650000 8.0
5.660000 9.0
5.670000 16.0
5.680000 12.0
5.690000 16.0
5.700000 17.0
5.710000 21.0
5.720000 24.0
5.730000 25.0
5.740000 26.0
5.750000 48.0
5.760000 50.0
5.770000 83.0
5.780000 121.0
5.790000 250.0
5.800000 384.0
5.810000 676.0
5.820000 918.0
5.830000 1197.0
5.840000 1260.0
5.850000 1267.0
5.860000 1260.0
5.870000 949.0
5.880000 841.0
5.890000 595.0
5.900000 416.0
5.910000 279.0
5.920000 199.0
5.930000 119.0
5.940000 81.0
5.950000 59.0
5.960000 71.0
5.970000 36.0
5.980000 41.0
5.990000 19.0
6.000000 21.0
6.010000 21.0
6.020000 23.0
6.030000 13.0
6.040000 11.0
6.050000 12.0
6.060000 11.0
6.070000 12.0
6.080000 9.0
6.090000 4.0
6.100000 7.0
6.110000 11.0
6.120000 9.0
6.130000 5.0
6.140000 5.0
6.150000 3.0
6.160000 4.0
6.170000 4.0
6.180000 11.0
6.190000 6.0
6.200000 0.0
6.210000 3.0
6.220000 5.0
6.230000 2.0
6.240000 5.0
6.250000 7.0
6.260000 2.0
6.270000 4.0
6.280000 7.0
6.290000 4.0
6.300000 4.0
6.310000 4.0
6.320000 5.0
6.330000 4.0
6.340000 6.0
6.350000 7.0
6.360000 3.0
6.370000 3.0
6.380000 3.0
6.390000 4.0
6.400000 5.0
6.410000 4.0
6.420000 5.0
6.430000 1.0
6.440000 2.0
6.450000 3.0
6.460000 4.0
6.470000 4.0
6.480000 2.0
6.490000 3.0
6.500000 3.0
6.510000 2.0
6.520000 0.0
6.530000 1.0
6.540000 0.0
6.550000 5.0
6.560000 0.0
6.570000 2.0
6.580000 5.0
6.590000 0.0
6.600000 2.0
6.610000 3.0
6.620000 0.0
6.630000 1.0
6.640000 0.0
6.650000 1.0
6.660000 3.0
6.670000 1.0
6.680000 2.0
6.690000 2.0
6.700000 4.0
6.710000 1.0
6.720000 3.0
6.730000 0.0
6.740000 6.0
6.750000 2.0
6.760000 5.0
6.770000 1.0
6.780000 3.0
6.790000 2.0
6.800000 5.0
6.810000 3.0
6.820000 1.0
6.830000 4.0
6.840000 0.0
6.850000 2.0
6.860000 2.0
6.870000 0.0
6.880000 2.0
6.890000 4.0
6.900000 1.0
6.910000 2.0
6.920000 3.0
6.930000 1.0
6.940000 2.0
6.950000 1.0
6.960000 0.0
6.970000 1.0
6.980000 4.0
6.990000 4.0
7.000000 2.0
7.010000 1.0
7.020000 0.0
7.030000 2.0
7.040000 1.0
7.050000 3.0
7.060000 2.0
7.070000 2.0
7.080000 0.0
7.090000 2.0
7.100000 1.0
7.110000 0.0
7.120000 4.0
7.130000 2.0
7.140000 2.0
7.150000 1.0
7.160000 1.0
7.170000 3.0
7.180000 2.0
7.190000 2.0
7.200000 2.0
7.210000 0.0
7.220000 2.0
7.230000 0.0
7.240000 2.0
7.250000 2.0
7.260000 0.0
7.270000 1.0
7.280000 3.0
7.290000 1.0
7.300000 1.0
7.310000 1.0
7.320000 1.0
7.330000 1.0
7.340000 0.0
7.350000 0.0
7.360000 0.0
7.370000 2.0
7.380000 0.0
7.390000 0.0
7.400000 1.0
7.410000 0.0
7.420000 0.0
7.430000 0.0
7.440000 2.0
7.450000 0.0
7.460000 3.0
7.470000 2.0
7.480000 1.0
7.490000 4.0
7.500000 2.0
7.510000 3.0
7.520000 3.0
7.530000 0.0
7.540000 0.0
7.550000 1.0
7.560000 2.0
7.570000 4.0
7.580000 3.0
7.590000 2.0
7.600000 6.0
7.610000 7.0
7.620000 5.0
7.630000 17.0
7.640000 12.0
7.650000 18.0
7.660000 32.0
7.670000 56.0
7.680000 94.0
7.690000 112.0
7.700000 139.0
7.710000 166.0
7.720000 159.0
7.730000 149.0
7.740000 121.0
7.750000 132.0
7.760000 90.0
7.770000 72.0
7.780000 62.0
7.790000 41.0
7.800000 32.0
7.810000 22.0
7.820000 11.0
7.830000 13.0
7.840000 11.0
7.850000 9.0
7.860000 8.0
7.870000 5.0
7.880000 5.0
7.890000 8.0
7.900000 4.0
7.910000 1.0
7.920000 4.0
7.930000 4.0
7.940000 5.0
7.950000 7.0
7.960000 1.0
7.970000 1.0
7.980000 5.0
7.990000 5.0
8.000000 3.0
8.010000 0.0
8.020000 2.0
8.030000 0.0
8.040000 0.0
8.050000 2.0
8.060000 2.0
8.070000 1.0
8.080000 2.0
8.090000 1.0
8.100000 2.0
8.110000 0.0
8.120000 1.0
8.130000 1.0
8.140000 1.0
8.150000 3.0
8.160000 1.0
8.170000 1.0
8.180000 3.0
8.190000 2.0
8.200000 0.0
8.210000 1.0
8.220000 0.0
8.230000 2.0
8.240000 2.0
8.250000 0.0
8.260000 2.0
8.270000 1.0
8.280000 1.0
8.290000 1.0
8.300000 1.0
8.310000 2.0
8.320000 2.0
8.330000 1.0
8.340000 0.0
8.350000 1.0
8.360000 1.0
8.370000 1.0
8.380000 1.0
8.390000 0.0
8.400000 1.0
8.410000 1.0
8.420000 1.0
8.430000 0.0
8.440000 2.0
8.450000 1.0
8.460000 3.0
8.470000 2.0
8.480000 0.0
8.490000 0.0
8.500000 1.0
8.510000 2.0
8.520000 0.0
8.530000 0.0
8.540000 0.0
8.550000 0.0
8.560000 2.0
8.570000 0.0
8.580000 0.0
8.590000 0.0
8.600000 1.0
8.610000 1.0
8.620000 1.0
8.630000 1.0
8.640000 0.0
8.650000 0.0
8.660000 1.0
8.670000 2.0
8.680000 1.0
8.690000 0.0
8.700000 2.0
8.710000 0.0
8.720000 0.0
8.730000 1.0
8.740000 1.0
8.750000 0.0
8.760000 2.0
8.770000 1.0
8.780000 1.0
8.790000 0.0
8.800000 1.0
8.810000 2.0
8.820000 2.0
8.830000 2.0
8.840000 1.0
8.850000 1.0
8.860000 2.0
8.870000 2.0
8.880000 1.0
8.890000 1.0
8.900000 2.0
8.910000 0.0
8.920000 1.0
8.930000 1.0
8.940000 1.0
8.950000 2.0
8.960000 1.0
8.970000 0.0
8.980000 1.0
8.990000 1.0
9.000000 0.0
9.010000 0.0
9.020000 1.0
9.030000 0.0
9.040000 1.0
9.050000 1.0
9.060000 1.0
9.070000 3.0
9.080000 0.0
9.090000 3.0
9.100000 0.0
9.110000 1.0
9.120000 0.0
9.130000 2.0
9.140000 1.0
9.150000 0.0
9.160000 0.0
9.170000 0.0
9.180000 0.0
9.190000 0.0
9.200000 0.0
9.210000 2.0
9.220000 0.0
9.230000 0.0
9.240000 1.0
9.250000 0.0
9.260000 0.0
9.270000 0.0
9.280000 1.0
9.290000 1.0
9.300000 1.0
9.310000 3.0
9.320000 0.0
9.330000 1.0
9.340000 1.0
9.350000 0.0
9.360000 0.0
9.370000 0.0
9.380000 2.0
9.390000 2.0
9.400000 2.0
9.410000 1.0
9.420000 0.0
9.430000 1.0
9.440000 0.0
9.450000 2.0
9.460000 3.0
9.470000 0.0
9.480000 1.0
9.490000 1.0
9.500000 4.0
9.510000 0.0
9.520000 1.0
9.530000 3.0
9.540000 2.0
9.550000 5.0
9.560000 14.0
9.570000 9.0
9.580000 8.0
9.590000 5.0
9.600000 6.0
9.610000 10.0
9.620000 5.0
9.630000 9.0
9.640000 7.0
9.650000 3.0
9.660000 6.0
9.670000 3.0
9.680000 1.0
9.690000 3.0
9.700000 2.0
9.710000 1.0
9.720000 2.0
9.730000 1.0
9.740000 1.0
9.750000 3.0
9.760000 1.0
9.770000 1.0
9.780000 1.0
9.790000 0.0
9.800000 2.0
9.810000 0.0
9.820000 0.0
9.830000 0.0
9.840000 2.0
9.850000 1.0
9.860000 0.0
9.870000 1.0
9.880000 1.0
9.890000 2.0
9.900000 0.0
9.910000 3.0
9.920000 2.0
9.930000 2.0
9.940000 1.0
9.950000 0.0
9.960000 1.0
9.970000 1.0
9.980000 0.0
9.990000 0.0
10.000000 1.0
10.010000 1.0
10.020000 0.0
10.030000 0.0
10.040000 1.0
10.050000 0.0
10.060000 0.0
10.070000 1.0
10.080000 0.0
10.090000 1.0
10.100000 1.0
10.110000 0.0
10.120000 1.0
10.130000 4.0
10.140000 1.0
10.150000 0.0
10.160000 1.0
10.170000 0.0
10.180000 2.0
10.190000 0.0
10.200000 2.0
10.210000 0.0
10.220000 1.0
10.230000 0.0
10.240000 0.0
10.250000 2.0
10.260000 1.0
10.270000 1.0
10.280000 1.0
10.290000 1.0
10.300000 0.0
10.310000 0.0
10.320000 0.0
10.330000 1.0
10.340000 2.0
10.350000 2.0
10.360000 0.0
10.370000 0.0
10.380000 2.0
10.390000 0.0
10.400000 0.0
10.410000 2.0
10.420000 1.0
10.430000 2.0
10.440000 1.0
10.450000 0.0
10.460000 1.0
10.470000 0.0
10.480000 0.0
10.490000 0.0
10.500000 1.0
10.510000 0.0
10.520000 0.0
10.530000 0.0
10.540000 2.0
10.550000 1.0
10.560000 0.0
10.570000 0.0
10.580000 2.0
10.590000 1.0
10.600000 0.0
10.610000 0.0
10.620000 0.0
10.630000 3.0
10.640000 1.0
10.650000 2.0
10.660000 1.0
10.670000 0.0
10.680000 2.0
10.690000 0.0
10.700000 1.0
10.710000 0.0
10.720000 0.0
10.730000 0.0
10.740000 0.0
10.750000 1.0
10.760000 0.0
10.770000 2.0
10.780000 2.0
10.790000 1.0
10.800000 0.0
10.810000 0.0
10.820000 1.0
10.830000 0.0
10.840000 0.0
10.850000 0.0
10.860000 1.0
10.870000 1.0
10.880000 0.0
10.890000 1.0
10.900000 1.0
10.910000 2.0
10.920000 0.0
10.930000 1.0
10.940000 0.0
10.950000 0.0
10.960000 1.0
10.970000 1.0
10.980000 0.0
10.990000 0.0
11.000000 1.0
11.010000 0.0
11.020000 2.0
11.030000 0.0
11.040000 0.0
11.050000 0.0
11.060000 0.0
11.070000 0.0
11.080000 0.0
11.090000 0.0
11.100000 1.0
11.110000 1.0
11.120000 1.0
11.130000 0.0
11.140000 1.0
11.150000 1.0
11.160000 0.0
11.170000 2.0
11.180000 0.0
11.190000 0.0
11.200000 0.0
11.210000 0.0
11.220000 0.0
11.230000 0.0
11.240000 1.0
11.250000 1.0
11.260000 0.0
11.270000 0.0
11.280000 1.0
11.290000 0.0
11.300000 2.0
11.310000 1.0
11.320000 1.0
11.330000 1.0
11.340000 1.0
11.350000 2.0
11.360000 2.0
11.370000 0.0
11.380000 0.0
11.390000 4.0
11.400000 2.0
11.410000 3.0
11.420000 1.0
11.430000 8.0
11.440000 3.0
11.450000 2.0
11.460000 2.0
11.470000 3.0
11.480000 4.0
11.490000 3.0
11.500000 2.0
11.510000 4.0
11.520000 3.0
11.530000 4.0
11.540000 0.0
11.550000 2.0
11.560000 1.0
11.570000 5.0
11.580000 1.0
11.590000 0.0
11.600000 1.0
11.610000 1.0
11.620000 0.0
11.630000 1.0
11.640000 1.0
11.650000 1.0
11.660000 0.0
11.670000 0.0
11.680000 1.0
11.690000 0.0
11.700000 0.0
11.710000 1.0
11.720000 0.0
11.730000 0.0
11.740000 0.0
11.750000 1.0
11.760000 1.0
11.770000 0.0
11.780000 0.0
11.790000 0.0
11.800000 0.0
11.810000 0.0
11.820000 1.0
11.830000 1.0
11.840000 0.0
11.850000 0.0
11.860000 2.0
11.870000 1.0
11.880000 1.0
11.890000 0.0
11.900000 2.0
11.910000 3.0
11.920000 0.0
11.930000 0.0
11.940000 0.0
11.950000 1.0
11.960000 0.0
11.970000 0.0
11.980000 0.0
11.990000 1.0
