0.00500 440750243840.0
0.01500 458966007808.0
0.02500 348752281600.0
0.03500 209259429888.0
0.04500 109297909760.0
0.05500 58887757824.0
0.06500 50059853824.0
0.07500 53992169472.0
0.08500 60804583424.0
0.09500 67202174976.0
0.10500 73599778816.0
0.11500 80874569728.0
0.12500 87394099200.0
0.13500 93835968512.0
0.14500 99699793920.0
0.15500 105493151744.0
0.16500 111483707392.0
0.17500 117113372672.0
0.18500 123480891392.0
0.19500 129386029056.0
0.20500 134271344640.0
0.21500 139734089728.0
0.22500 144966647808.0
0.23500 150509682688.0
0.24500 155529052160.0
0.25500 160193298432.0
0.26500 165227741184.0
0.27500 170219945984.0
0.28500 174049869824.0
0.29500 179514277888.0
0.30500 182106816512.0
0.31500 188039151616.0
0.32500 191360778240.0
0.33500 194528198656.0
0.34500 199795310592.0
0.35500 200875999232.0
0.36500 205246824448.0
0.37500 208073736192.0
0.38500 210426691584.0
0.39500 214869360640.0
0.40500 216645419008.0
0.41500 218582351872.0
0.42500 223170920448.0
0.43500 224503824384.0
0.44500 228312907776.0
0.45500 230376357888.0
0.46500 232402862080.0
0.47500 235020353536.0
0.48500 236197593088.0
0.49500 239383314432.0
0.50500 240415719424.0
0.51500 241755652096.0
0.52500 244495613952.0
0.53500 244374077440.0
0.54500 246347153408.0
0.55500 248170938368.0
0.56500 248243585024.0
0.57500 250384793600.0
0.58500 249650446336.0
0.59500 251744976896.0
0.60500 251889942528.0
0.61500 249501286400.0
0.62500 249397002240.0
0.63500 243961135104.0
0.64500 237758595072.0
0.65500 230811779072.0
0.66500 220137553920.0
0.67500 207055749120.0
0.68500 184194646016.0
0.69500 158437949440.0
0.70500 132950179840.0
0.71500 110426652672.0
0.72500 94496940032.0
0.73500 81985216512.0
0.74500 71100030976.0
0.75500 63534821376.0
0.76500 56105693184.0
0.77500 50800246784.0
0.78500 45930221568.0
0.79500 41727758336.0
0.80500 38446972928.0
0.81500 34736054272.0
0.82500 31618840576.0
0.83500 29376262144.0
0.84500 26873337856.0
0.85500 25144625152.0
0.86500 23206457344.0
0.87500 21619886080.0
0.88500 20400926720.0
0.89500 18908041216.0
0.90500 17823000576.0
0.91500 16902704128.0
0.92500 15738956800.0
0.93500 15039440896.0
0.94500 14184481792.0
0.95500 13535256576.0
0.96500 13007979520.0
0.97500 12095025152.0
0.98500 11465952256.0
0.99500 10907726848.0
1.00500 10264067072.0
1.01500 9921126400.0
1.02500 9402255360.0
1.03500 8913744896.0
1.04500 8525409792.0
1.05500 8087064064.0
1.06500 7831768064.0
1.07500 7465892352.0
1.08500 7032147456.0
1.09500 6731497984.0
1.10500 6463643136.0
1.11500 6174979072.0
1.12500 5955526144.0
1.13500 5768966144.0
1.14500 5493405696.0
1.15500 5323795968.0
1.16500 5247214080.0
1.17500 4892148736.0
1.18500 4756704256.0
1.19500 4711224832.0
1.20500 4393457664.0
1.21500 4326595584.0
1.22500 4211806464.0
1.23500 3911646464.0
1.24500 3850951680.0
1.25500 3791515392.0
1.26500 3584970752.0
1.27500 3496627712.0
1.28500 3432940032.0
1.29500 3268490240.0
1.30500 3184538368.0
1.31500 3182007040.0
1.32500 3006271488.0
1.33500 2868463360.0
1.34500 2934976000.0
1.35500 2779756544.0
1.36500 2678505216.0
1.37500 2731466240.0
1.38500 2593098752.0
1.39500 2488295168.0
1.40500 2506335744.0
1.41500 2433655808.0
1.42500 2318601216.0
1.43500 2308224256.0
1.44500 2307049472.0
1.45500 2156808704.0
1.46500 2112979712.0
1.47500 2160458752.0
1.48500 2017657856.0
1.49500 1984359680.0
1.50500 2041642240.0
1.51500 1939355904.0
1.52500 1859991040.0
1.53500 1890408448.0
1.54500 1857180032.0
1.55500 1755285376.0
1.56500 1768277376.0
1.57500 1815672576.0
1.58500 1697611136.0
1.59500 1660075392.0
1.60500 1740013696.0
1.61500 1665557504.0
1.62500 1594597632.0
1.63500 1678130048.0
1.64500 1648188160.0
1.65500 1587493248.0
1.66500 1617197440.0
1.67500 1691905280.0
1.68500 1618078464.0
1.69500 1607435904.0
1.70500 1709806080.0
1.71500 1665963136.0
1.72500 1636314880.0
1.73500 1777969024.0
1.74500 1770654848.0
1.75500 1719917312.0
1.76500 1830007168.0
1.77500 1947005696.0
1.78500 1935873664.0
1.79500 1982737408.0
1.80500 2240508928.0
1.81500 2271317760.0
1.82500 2284323840.0
1.83500 2644787200.0
1.84500 2908334592.0
1.85500 3079902464.0
1.86500 3644183296.0
1.87500 4401526784.0
1.88500 5276092928.0
1.89500 6682760192.0
1.90500 9561026560.0
1.91500 14175839232.0
1.92500 22381846528.0
1.93500 38817984512.0
1.94500 58278346752.0
1.95500 71140188160.0
1.96500 72302714880.0
1.97500 58028519424.0
1.98500 39962935296.0
1.99500 26360928256.0
2.00500 19701760000.0
2.01500 15281576960.0
2.02500 11292804096.0
2.03500 8470295040.0
2.04500 6907988480.0
2.05500 5644961280.0
2.06500 4501883392.0
2.07500 3829372672.0
2.08500 3309913856.0
2.09500 2744038912.0
2.10500 2374834688.0
2.11500 2101036416.0
2.12500 1822413312.0
2.13500 1562795776.0
2.14500 1397646976.0
2.15500 1248622720.0
2.16500 1089557376.0
2.17500 996053632.0
2.18500 919681600.0
2.19500 828974848.0
2.20500 758210752.0
2.21500 714213952.0
2.22500 648218752.0
2.23500 597830784.0
2.24500 558309184.0
2.25500 533471808.0
2.26500 494187936.0
2.27500 451701504.0
2.28500 446974592.0
2.29500 417452256.0
2.30500 386531424.0
2.31500 375609120.0
2.32500 356449664.0
2.33500 335626016.0
2.34500 313529728.0
2.35500 308593024.0
2.36500 294985600.0
2.37500 273294880.0
2.38500 263337552.0
2.39500 261197840.0
2.40500 244024272.0
2.41500 237744992.0
2.42500 231144080.0
2.43500 222585264.0
2.44500 210096656.0
2.45500 204726416.0
2.46500 204097088.0
2.47500 189510736.0
2.48500 181469360.0
2.49500 182923808.0
2.50500 178098976.0
2.51500 166407520.0
2.52500 163806304.0
2.53500 161065248.0
2.54500 152170784.0
2.55500 145597840.0
2.56500 144716784.0
2.57500 143206400.0
2.58500 136857216.0
2.59500 132423968.0
2.60500 131095392.0
2.61500 127766960.0
2.62500 118173248.0
2.63500 119459872.0
2.64500 116509032.0
2.65500 110887064.0
2.66500 106943296.0
2.67500 111614288.0
2.68500 105908408.0
2.69500 100887792.0
2.70500 103363136.0
2.71500 101237416.0
2.72500 97489432.0
2.73500 92706568.0
2.74500 96272736.0
2.75500 90650768.0
2.76500 84175712.0
2.77500 85196624.0
2.78500 86888808.0
2.79500 82301728.0
2.80500 78973296.0
2.81500 79686528.0
2.82500 78204120.0
2.83500 73085608.0
2.84500 73812832.0
2.85500 74428168.0
2.86500 69883048.0
2.87500 68792216.0
2.88500 66960180.0
2.89500 63911448.0
2.90500 62191296.0
2.91500 61142420.0
2.92500 61520016.0
2.93500 58345420.0
2.94500 53786312.0
2.95500 55856088.0
2.96500 53632476.0
2.97500 51436832.0
2.98500 50276076.0
2.99500 50052316.0
3.00500 49395020.0
3.01500 47646896.0
3.02500 46737872.0
3.03500 45241476.0
3.04500 45073656.0
3.05500 42262672.0
3.06500 42290640.0
3.07500 41619360.0
3.08500 38444764.0
3.09500 36221152.0
3.10500 36808520.0
3.11500 36067316.0
3.12500 34249264.0
3.13500 34207312.0
3.14500 33983552.0
3.15500 33018584.0
3.16500 31354370.0
3.17500 31564144.0
3.18500 30892864.0
3.19500 27774210.0
3.20500 25886236.0
3.21500 26109996.0
3.22500 24054200.0
3.23500 23103220.0
3.24500 22697656.0
3.25500 22194196.0
3.26500 22473896.0
3.27500 20683816.0
3.28500 21830584.0
3.29500 21187276.0
3.30500 19620956.0
3.31500 19299300.0
3.32500 18628020.0
3.33500 18124560.0
3.34500 18753884.0
3.35500 18082604.0
3.36500 17718996.0
3.37500 14796130.0
3.38500 15537335.0
3.39500 15509365.0
3.40500 15033875.0
3.41500 15327560.0
3.42500 15495380.0
3.43500 14712220.0
3.44500 13369660.0
3.45500 14278685.0
3.46500 12544545.0
3.47500 13887105.0
3.48500 13649360.0
3.49500 13915075.0
3.50500 13229810.0
3.51500 12152965.0
3.52500 11845295.0
3.53500 12460635.0
3.54500 11789355.0
3.55500 10264990.0
3.56500 11579580.0
3.57500 12180935.0
3.58500 11299880.0
3.59500 11649505.0
3.60500 11034165.0
3.61500 10894315.0
3.62500 11146045.0
3.63500 11579580.0
3.64500 10684540.0
3.65500 10572660.0
3.66500 9188145.0
3.67500 10264990.0
3.68500 11229955.0
3.69500 10334915.0
3.70500 11188000.0
3.71500 12922140.0
3.72500 13439585.0
3.73500 13733270.0
3.74500 12516575.0
3.75500 11495670.0
3.76500 13635375.0
3.77500 12432665.0
3.78500 12194920.0
3.79500 12460635.0
3.80500 12754320.0
3.81500 13369660.0
3.82500 12502590.0
3.83500 12236875.0
3.84500 11887250.0
3.85500 11719430.0
3.86500 10922285.0
3.87500 10334915.0
3.88500 10167095.0
3.89500 10362885.0
3.90500 9859425.0
3.91500 10069200.0
3.92500 8936415.0
3.93500 9160175.0
3.94500 8600775.0
3.95500 8069345.0
3.96500 8432955.0
3.97500 8950400.0
3.98500 7929495.0
3.99500 8335060.0
4.00500 7901525.0
4.01500 7314155.0
4.02500 6992500.0
4.03500 7426035.0
4.04500 7048440.0
4.05500 7076410.0
4.06500 6922575.0
4.07500 7523930.0
4.08500 6544980.0
4.09500 6740770.0
4.10500 6447085.0
4.11500 6992500.0
4.12500 6950545.0
4.13500 7146335.0
4.14500 5845730.0
4.15500 5677910.0
4.16500 7272200.0
4.17500 6978515.0
4.18500 7230245.0
4.19500 6558965.0
4.20500 6530995.0
4.21500 6097460.0
4.22500 5915655.0
4.23500 6461070.0
4.24500 5971595.0
4.25500 5971595.0
4.26500 5230390.0
4.27500 6111445.0
4.28500 5580015.0
4.29500 5412195.0
4.30500 5426180.0
4.31500 5524075.0
4.32500 5230390.0
4.33500 4922720.0
4.34500 5538060.0
4.35500 4726930.0
4.36500 5118510.0
4.37500 5230390.0
4.38500 5258360.0
4.39500 5398210.0
4.40500 6139415.0
4.41500 6223325.0
4.42500 4908735.0
4.43500 4880765.0
4.44500 4531140.0
4.45500 4880765.0
4.46500 4545125.0
4.47500 4657005.0
4.48500 4559110.0
4.49500 4754900.0
4.50500 4139560.0
4.51500 4601065.0
4.52500 4824825.0
4.53500 4545125.0
4.54500 4125575.0
4.55500 4041665.0
4.56500 5216405.0
4.57500 4643020.0
4.58500 5510090.0
4.59500 5244375.0
4.60500 6349190.0
4.61500 6377160.0
4.62500 7048440.0
4.63500 4880765.0
4.64500 5006630.0
4.65500 4419260.0
4.66500 4279410.0
4.67500 4209485.0
4.68500 4363320.0
4.69500 3692040.0
4.70500 3985725.0
4.71500 4601065.0
4.72500 4698960.0
4.73500 5006630.0
4.74500 4447230.0
4.75500 4335350.0
4.76500 4545125.0
4.77500 4265425.0
4.78500 5104525.0
4.79500 4461215.0
4.80500 4978660.0
4.81500 5440165.0
4.82500 4964675.0
4.83500 5426180.0
4.84500 4209485.0
4.85500 4670990.0
4.86500 4810840.0
4.87500 4866780.0
4.88500 5090540.0
4.89500 4307380.0
4.90500 5314300.0
4.91500 4573095.0
4.92500 5370240.0
4.93500 4782870.0
4.94500 4363320.0
4.95500 5104525.0
4.96500 4670990.0
4.97500 4391290.0
4.98500 4433245.0
4.99500 4167530.0
5.00500 4545125.0
5.01500 3901815.0
5.02500 4027680.0
5.03500 4489185.0
5.04500 3720010.0
5.05500 3370385.0
5.06500 3510235.0
5.07500 3300460.0
5.08500 3314445.0
5.09500 3426325.0
5.10500 3789935.0
5.11500 3720010.0
5.12500 3678055.0
5.13500 3370385.0
5.14500 3440310.0
5.15500 3552190.0
5.16500 3692040.0
5.17500 3887830.0
5.18500 3608130.0
5.19500 3370385.0
5.20500 3678055.0
5.21500 4461215.0
5.22500 4643020.0
5.23500 4069635.0
5.24500 4657005.0
5.25500 3901815.0
5.26500 4405275.0
5.27500 4293395.0
5.28500 3873845.0
5.29500 4978660.0
5.30500 4601065.0
5.31500 3943770.0
5.32500 4209485.0
5.33500 3845875.0
5.34500 3831890.0
5.35500 4167530.0
5.36500 4251440.0
5.37500 3356400.0
5.38500 3286475.0
5.39500 3706025.0
5.40500 3202565.0
5.41500 3286475.0
5.42500 3132640.0
5.43500 3650085.0
5.44500 3580160.0
5.45500 3048730.0
5.46500 3496250.0
5.47500 3845875.0
5.48500 4139560.0
5.49500 3552190.0
5.50500 4125575.0
5.51500 3608130.0
5.52500 4391290.0
5.53500 4181515.0
5.54500 5146480.0
5.55500 5188435.0
5.56500 5747835.0
5.57500 4992645.0
5.58500 4433245.0
5.59500 4657005.0
5.60500 4433245.0
5.61500 4251440.0
5.62500 4335350.0
5.63500 3524220.0
5.64500 3957755.0
5.65500 3859860.0
5.66500 4041665.0
5.67500 3650085.0
5.68500 4237455.0
5.69500 4265425.0
5.70500 3901815.0
5.71500 3789935.0
5.72500 3258505.0
5.73500 3314445.0
5.74500 3146625.0
5.75500 2992790.0
5.76500 3384370.0
5.77500 2824970.0
5.78500 2964820.0
5.79500 2433390.0
5.80500 3831890.0
5.81500 4041665.0
5.82500 3076700.0
5.83500 2810985.0
5.84500 3300460.0
5.85500 3524220.0
5.86500 3678055.0
5.87500 3454295.0
5.88500 3678055.0
5.89500 2992790.0
5.90500 2908880.0
5.91500 2797000.0
5.92500 3174595.0
5.93500 3188580.0
5.94500 2783015.0
5.95500 2894895.0
5.96500 2894895.0
5.97500 3608130.0
5.98500 3580160.0
5.99500 3090685.0
6.00500 3370385.0
6.01500 3692040.0
6.02500 3706025.0
6.03500 3006775.0
6.04500 2880910.0
6.05500 2545270.0
6.06500 2964820.0
6.07500 2699105.0
6.08500 2908880.0
6.09500 2517300.0
6.10500 2810985.0
6.11500 2950835.0
6.12500 2824970.0
6.13500 2908880.0
6.14500 2545270.0
6.15500 3090685.0
6.16500 3146625.0
6.17500 3761965.0
6.18500 3496250.0
6.19500 3146625.0
6.20500 3104670.0
6.21500 2545270.0
6.22500 2237600.0
6.23500 2209630.0
6.24500 2307525.0
6.25500 2531285.0
6.26500 2489330.0
6.27500 2083765.0
6.28500 2852940.0
6.29500 2377450.0
6.30500 2391435.0
6.31500 2265570.0
6.32500 2755045.0
6.33500 2601210.0
6.34500 2377450.0
6.35500 2293540.0
6.36500 2349480.0
6.37500 1762110.0
6.38500 2559255.0
6.39500 2461360.0
6.40500 2824970.0
6.41500 2377450.0
6.42500 2195645.0
6.43500 2810985.0
6.44500 2922865.0
6.45500 2810985.0
6.46500 3132640.0
6.47500 2964820.0
6.48500 2838955.0
6.49500 2838955.0
6.50500 2307525.0
6.51500 2419405.0
6.52500 2405420.0
6.53500 2783015.0
6.54500 2461360.0
6.55500 2279555.0
6.56500 2251585.0
6.57500 2852940.0
6.58500 2307525.0
6.59500 2405420.0
6.60500 3174595.0
6.61500 2769030.0
6.62500 2013840.0
6.63500 2783015.0
6.64500 2894895.0
6.65500 3104670.0
6.66500 1846020.0
6.67500 1664215.0
6.68500 2349480.0
6.69500 2139705.0
6.70500 2377450.0
6.71500 2251585.0
6.72500 2251585.0
6.73500 2125720.0
6.74500 1873990.0
6.75500 1860005.0
6.76500 1915945.0
6.77500 1999855.0
6.78500 2111735.0
6.79500 2237600.0
6.80500 2125720.0
6.81500 1999855.0
6.82500 1971885.0
6.83500 1790080.0
6.84500 2657150.0
6.85500 2964820.0
6.86500 2643165.0
6.87500 3132640.0
6.88500 2069780.0
6.89500 2083765.0
6.90500 1510380.0
6.91500 2125720.0
6.92500 1594290.0
6.93500 2153690.0
6.94500 2908880.0
6.95500 3538205.0
6.96500 2643165.0
6.97500 3118655.0
6.98500 3160610.0
6.99500 3468280.0
7.00500 2992790.0
7.01500 3258505.0
7.02500 2321510.0
7.03500 2852940.0
7.04500 2755045.0
7.05500 2349480.0
7.06500 2125720.0
7.07500 2391435.0
7.08500 2321510.0
7.09500 3132640.0
7.10500 2713090.0
7.11500 2209630.0
7.12500 2069780.0
7.13500 2293540.0
7.14500 1873990.0
7.15500 1538350.0
7.16500 1873990.0
7.17500 2223615.0
7.18500 2181660.0
7.19500 2293540.0
7.20500 2153690.0
7.21500 1957900.0
7.22500 1943915.0
7.23500 2055795.0
7.24500 1748125.0
7.25500 1957900.0
7.26500 2223615.0
7.27500 2573240.0
7.28500 3230535.0
7.29500 3510235.0
7.30500 2587225.0
7.31500 1440455.0
7.32500 1328575.0
7.33500 2209630.0
7.34500 2475345.0
7.35500 2894895.0
7.36500 3384370.0
7.37500 3803920.0
7.38500 3524220.0
7.39500 3286475.0
7.40500 3090685.0
7.41500 3440310.0
7.42500 2852940.0
7.43500 2587225.0
7.44500 2587225.0
7.45500 3384370.0
7.46500 3048730.0
7.47500 3034745.0
7.48500 2629180.0
7.49500 2377450.0
7.50500 2503315.0
7.51500 2629180.0
7.52500 2125720.0
7.53500 1804065.0
7.54500 2013840.0
7.55500 2069780.0
7.56500 2447375.0
7.57500 2041810.0
7.58500 2237600.0
7.59500 2545270.0
7.60500 2279555.0
7.61500 2503315.0
7.62500 2223615.0
7.63500 2167675.0
7.64500 2279555.0
7.65500 2643165.0
7.66500 2419405.0
7.67500 2685120.0
7.68500 2405420.0
7.69500 2237600.0
7.70500 1608275.0
7.71500 1804065.0
7.72500 2027825.0
7.73500 2167675.0
7.74500 1846020.0
7.75500 2125720.0
7.76500 1678200.0
7.77500 2069780.0
7.78500 1790080.0
7.79500 1440455.0
7.80500 1482410.0
7.81500 1622260.0
7.82500 2447375.0
7.83500 1566320.0
7.84500 1692185.0
7.85500 1552335.0
7.86500 1258650.0
7.87500 1566320.0
7.88500 1720155.0
7.89500 2824970.0
7.90500 3678055.0
7.91500 2880910.0
7.92500 2083765.0
7.93500 1258650.0
7.94500 1426470.0
7.95500 1440455.0
7.96500 1146770.0
7.97500 811130.0
7.98500 1398500.0
7.99500 1342560.0
8.00500 1412485.0
8.01500 1356545.0
8.02500 1594290.0
8.03500 1943915.0
8.04500 2181660.0
8.05500 1216695.0
8.06500 1090830.0
8.07500 839100.0
8.08500 811130.0
8.09500 978950.0
8.10500 1132785.0
8.11500 1412485.0
8.12500 992935.0
8.13500 1398500.0
8.14500 1356545.0
8.15500 1118800.0
8.16500 1034890.0
8.17500 1468425.0
8.18500 2335495.0
8.19500 2573240.0
8.20500 2797000.0
8.21500 3328430.0
8.22500 2992790.0
8.23500 2936850.0
8.24500 2111735.0
8.25500 2587225.0
8.26500 2223615.0
8.27500 2335495.0
8.28500 2293540.0
8.29500 1943915.0
8.30500 2265570.0
8.31500 1943915.0
8.32500 1929930.0
8.33500 1901960.0
8.34500 1776095.0
8.35500 1790080.0
8.36500 2111735.0
8.37500 2069780.0
8.38500 1873990.0
8.39500 2209630.0
8.40500 1804065.0
8.41500 2195645.0
8.42500 1915945.0
8.43500 2321510.0
8.44500 2265570.0
8.45500 2377450.0
8.46500 2321510.0
8.47500 2447375.0
8.48500 1440455.0
8.49500 2685120.0
8.50500 2769030.0
8.51500 2838955.0
8.52500 2237600.0
8.53500 1901960.0
8.54500 1846020.0
8.55500 1580305.0
8.56500 1622260.0
8.57500 1790080.0
8.58500 1664215.0
8.59500 1454440.0
8.60500 1608275.0
8.61500 1818050.0
8.62500 1999855.0
8.63500 1720155.0
8.64500 1272635.0
8.65500 1594290.0
8.66500 2069780.0
8.67500 1440455.0
8.68500 1524365.0
8.69500 1468425.0
8.70500 1174740.0
8.71500 1188725.0
8.72500 1048875.0
8.73500 1216695.0
8.74500 1650230.0
8.75500 1440455.0
8.76500 1412485.0
8.77500 1118800.0
8.78500 1006920.0
8.79500 1398500.0
8.80500 1216695.0
8.81500 1356545.0
8.82500 1314590.0
8.83500 2041810.0
8.84500 1440455.0
8.85500 1790080.0
8.86500 1272635.0
8.87500 1300605.0
8.88500 1748125.0
8.89500 1482410.0
8.90500 1398500.0
8.91500 1356545.0
8.92500 1524365.0
8.93500 1398500.0
8.94500 1006920.0
8.95500 1300605.0
8.96500 1020905.0
8.97500 950980.0
8.98500 909025.0
8.99500 1216695.0
9.00500 1622260.0
9.01500 2083765.0
9.02500 1734140.0
9.03500 1636245.0
9.04500 1412485.0
9.05500 1594290.0
9.06500 1915945.0
9.07500 1804065.0
9.08500 1915945.0
9.09500 2111735.0
9.10500 2475345.0
9.11500 2517300.0
9.12500 1957900.0
9.13500 1790080.0
9.14500 2797000.0
9.15500 2573240.0
9.16500 1971885.0
9.17500 2279555.0
9.18500 2713090.0
9.19500 2237600.0
9.20500 2195645.0
9.21500 1664215.0
9.22500 1118800.0
9.23500 1342560.0
9.24500 1398500.0
9.25500 1692185.0
9.26500 1342560.0
9.27500 1202710.0
9.28500 1048875.0
9.29500 1412485.0
9.30500 1314590.0
9.31500 1818050.0
9.32500 1678200.0
9.33500 1384515.0
9.34500 2167675.0
9.35500 1664215.0
9.36500 2125720.0
9.37500 2223615.0
9.38500 1832035.0
9.39500 2181660.0
9.40500 1650230.0
9.41500 1734140.0
9.42500 1370530.0
9.43500 1328575.0
9.44500 1482410.0
9.45500 1510380.0
9.46500 1748125.0
9.47500 1230680.0
9.48500 1538350.0
9.49500 1552335.0
9.50500 1230680.0
9.51500 1566320.0
9.52500 1244665.0
9.53500 1216695.0
9.54500 1580305.0
9.55500 1678200.0
9.56500 1692185.0
9.57500 1342560.0
9.58500 1636245.0
9.59500 1664215.0
9.60500 1818050.0
9.61500 1496395.0
9.62500 1734140.0
9.63500 2349480.0
9.64500 1832035.0
9.65500 1356545.0
9.66500 1454440.0
9.67500 1748125.0
9.68500 1356545.0
9.69500 1314590.0
9.70500 1314590.0
9.71500 1272635.0
9.72500 2293540.0
9.73500 1426470.0
9.74500 1454440.0
9.75500 1468425.0
9.76500 1915945.0
9.77500 1328575.0
9.78500 1468425.0
9.79500 1286620.0
9.80500 1398500.0
9.81500 1230680.0
9.82500 2111735.0
9.83500 2671135.0
9.84500 1901960.0
9.85500 1971885.0
9.86500 1664215.0
9.87500 1734140.0
9.88500 2013840.0
9.89500 1720155.0
9.90500 1971885.0
9.91500 1929930.0
9.92500 1426470.0
9.93500 1496395.0
9.94500 1496395.0
9.95500 1524365.0
9.96500 1664215.0
9.97500 1678200.0
9.98500 2125720.0
9.99500 2419405.0
