-0.01250 39.0
-0.00750 43.0
-0.00250 51.0
0.00250 40.0
0.00750 40.0
0.01250 56.0
0.01750 47.0
0.02250 46.0
0.02750 44.0
0.03250 46.0
0.03750 57.0
0.04250 46.0
0.04750 36.0
0.05250 44.0
0.05750 63.0
0.06250 56.0
0.06750 70.0
0.07250 84.0
0.07750 72.0
0.08250 52.0
0.08750 81.0
0.09250 58.0
0.09750 77.0
0.10250 80.0
0.10750 71.0
0.11250 70.0
0.11750 65.0
0.12250 66.0
0.12750 75.0
0.13250 67.0
0.13750 71.0
0.14250 84.0
0.14750 93.0
0.15250 70.0
0.15750 65.0
0.16250 75.0
0.16750 71.0
0.17250 64.0
0.17750 68.0
0.18250 76.0
0.18750 103.0
0.19250 99.0
0.19750 104.0
0.20250 68.0
0.20750 103.0
0.21250 105.0
0.21750 97.0
0.22250 78.0
0.22750 96.0
0.23250 106.0
0.23750 90.0
0.24250 84.0
0.24750 100.0
0.25250 81.0
0.25750 78.0
0.26250 95.0
0.26750 89.0
0.27250 111.0
0.27750 108.0
0.28250 97.0
0.28750 135.0
0.29250 118.0
0.29750 113.0
0.30250 118.0
0.30750 99.0
0.31250 86.0
0.31750 85.0
0.32250 111.0
0.32750 137.0
0.33250 118.0
0.33750 127.0
0.34250 131.0
0.34750 117.0
0.35250 121.0
0.35750 139.0
0.36250 154.0
0.36750 144.0
0.37250 147.0
0.37750 151.0
0.38250 168.0
0.38750 189.0
0.39250 179.0
0.39750 201.0
0.40250 205.0
0.40750 168.0
0.41250 197.0
0.41750 188.0
0.42250 190.0
0.42750 228.0
0.43250 219.0
0.43750 240.0
0.44250 248.0
0.44750 289.0
0.45250 275.0
0.45750 308.0
0.46250 311.0
0.46750 310.0
0.47250 373.0
0.47750 357.0
0.48250 361.0
0.48750 391.0
0.49250 402.0
0.49750 469.0
0.50250 445.0
0.50750 506.0
0.51250 559.0
0.51750 595.0
0.52250 577.0
0.52750 640.0
0.53250 649.0
0.53750 715.0
0.54250 777.0
0.54750 808.0
0.55250 919.0
0.55750 1009.0
0.56250 1049.0
0.56750 1114.0
0.57250 1193.0
0.57750 1196.0
0.58250 1367.0
0.58750 1488.0
0.59250 1577.0
0.59750 1580.0
0.60250 1818.0
0.60750 1856.0
0.61250 1994.0
0.61750 2118.0
0.62250 2285.0
0.62750 2281.0
0.63250 2550.0
0.63750 2675.0
0.64250 2754.0
0.64750 2943.0
0.65250 3076.0
0.65750 3178.0
0.66250 3379.0
0.66750 3485.0
0.67250 3775.0
0.67750 3800.0
0.68250 4074.0
0.68750 4172.0
0.69250 4283.0
0.69750 4531.0
0.70250 4810.0
0.70750 4925.0
0.71250 5015.0
0.71750 5264.0
0.72250 5369.0
0.72750 5369.0
0.73250 5692.0
0.73750 6021.0
0.74250 5893.0
0.74750 6358.0
0.75250 6397.0
0.75750 6733.0
0.76250 6913.0
0.76750 7154.0
0.77250 7372.0
0.77750 7419.0
0.78250 7714.0
0.78750 7943.0
0.79250 8018.0
0.79750 8391.0
0.80250 8462.0
0.80750 8746.0
0.81250 8817.0
0.81750 9108.0
0.82250 9454.0
0.82750 9509.0
0.83250 9643.0
0.83750 9994.0
0.84250 10230.0
0.84750 10613.0
0.85250 10852.0
0.85750 11019.0
0.86250 11435.0
0.86750 11785.0
0.87250 12282.0
0.87750 12798.0
0.88250 13028.0
0.88750 13372.0
0.89250 13926.0
0.89750 14847.0
0.90250 15026.0
0.90750 15835.0
0.91250 16633.0
0.91750 17890.0
0.92250 18698.0
0.92750 20047.0
0.93250 21493.0
0.93750 24678.0
0.94250 28707.0
0.94750 35557.0
0.95250 60345.0
0.95750 191402.0
0.96250 799257.0
0.96750 2107703.0
0.97250 3630112.0
0.97750 4822597.0
0.98250 5339286.0
0.98750 4898640.0
0.99250 3593582.0
0.99750 1850202.0
1.00250 539002.0
1.00750 110479.0
1.01250 40848.0
1.01750 29792.0
1.02250 25714.0
1.02750 22454.0
1.03250 20567.0
1.03750 18772.0
1.04250 17891.0
1.04750 16628.0
1.05250 15742.0
1.05750 15152.0
1.06250 13951.0
1.06750 13553.0
1.07250 12809.0
1.07750 12528.0
1.08250 11858.0
1.08750 11339.0
1.09250 10940.0
1.09750 10485.0
1.10250 10368.0
1.10750 10049.0
1.11250 9747.0
1.11750 9369.0
1.12250 9291.0
1.12750 8696.0
1.13250 8538.0
1.13750 8130.0
1.14250 7861.0
1.14750 7775.0
1.15250 7371.0
1.15750 7311.0
1.16250 6957.0
1.16750 6866.0
1.17250 6634.0
1.17750 6381.0
1.18250 6252.0
1.18750 6143.0
1.19250 5869.0
1.19750 5653.0
1.20250 5476.0
1.20750 5421.0
1.21250 5096.0
1.21750 4967.0
1.22250 4686.0
1.22750 4533.0
1.23250 4562.0
1.23750 4326.0
1.24250 4136.0
1.24750 4028.0
1.25250 3770.0
1.25750 3617.0
1.26250 3618.0
1.26750 3277.0
1.27250 3086.0
1.27750 3018.0
1.28250 2996.0
1.28750 2679.0
1.29250 2624.0
1.29750 2537.0
1.30250 2494.0
1.30750 2318.0
1.31250 2098.0
1.31750 1921.0
1.32250 1912.0
1.32750 1791.0
1.33250 1590.0
1.33750 1598.0
1.34250 1427.0
1.34750 1310.0
1.35250 1325.0
1.35750 1213.0
1.36250 1119.0
1.36750 1070.0
1.37250 970.0
1.37750 925.0
1.38250 887.0
1.38750 827.0
1.39250 711.0
1.39750 713.0
1.40250 663.0
1.40750 642.0
1.41250 538.0
1.41750 517.0
1.42250 487.0
1.42750 413.0
1.43250 407.0
1.43750 371.0
1.44250 388.0
1.44750 374.0
1.45250 325.0
1.45750 303.0
1.46250 304.0
1.46750 273.0
1.47250 226.0
1.47750 229.0
1.48250 229.0
1.48750 197.0
1.49250 197.0
1.49750 163.0
1.50250 170.0
1.50750 150.0
1.51250 168.0
1.51750 172.0
1.52250 124.0
1.52750 142.0
1.53250 130.0
1.53750 105.0
1.54250 98.0
1.54750 117.0
1.55250 104.0
1.55750 104.0
1.56250 88.0
1.56750 90.0
1.57250 90.0
1.57750 80.0
1.58250 58.0
1.58750 64.0
1.59250 70.0
1.59750 67.0
1.60250 69.0
1.60750 43.0
1.61250 51.0
1.61750 59.0
1.62250 52.0
1.62750 44.0
1.63250 46.0
1.63750 44.0
1.64250 63.0
1.64750 56.0
1.65250 48.0
1.65750 44.0
1.66250 43.0
1.66750 38.0
1.67250 48.0
1.67750 40.0
1.68250 44.0
1.68750 42.0
1.69250 38.0
1.69750 40.0
1.70250 40.0
1.70750 39.0
1.71250 40.0
1.71750 42.0
1.72250 31.0
1.72750 35.0
1.73250 21.0
1.73750 35.0
1.74250 32.0
1.74750 24.0
1.75250 32.0
1.75750 26.0
1.76250 29.0
1.76750 39.0
1.77250 46.0
1.77750 22.0
1.78250 27.0
1.78750 32.0
1.79250 23.0
1.79750 20.0
1.80250 26.0
1.80750 30.0
1.81250 39.0
1.81750 38.0
1.82250 35.0
1.82750 38.0
1.83250 23.0
1.83750 28.0
1.84250 36.0
1.84750 33.0
1.85250 28.0
1.85750 29.0
1.86250 27.0
1.86750 32.0
1.87250 47.0
1.87750 34.0
1.88250 30.0
1.88750 21.0
1.89250 26.0
1.89750 30.0
1.90250 21.0
1.90750 38.0
1.91250 31.0
1.91750 25.0
1.92250 24.0
1.92750 26.0
1.93250 23.0
1.93750 20.0
1.94250 29.0
1.94750 26.0
1.95250 25.0
1.95750 24.0
1.96250 33.0
1.96750 29.0
1.97250 21.0
1.97750 18.0
