0.00500 38281204.0
0.01500 41101476.0
0.02500 30298202.0
0.03500 16898756.0
0.04500 8093483.0
0.05500 3911457.0
0.06500 2907317.0
0.07500 3156326.0
0.08500 3429737.0
0.09500 3876710.0
0.10500 4316200.0
0.11500 4626567.0
0.12500 5174610.0
0.13500 5474994.0
0.14500 5959371.0
0.15500 6508797.0
0.16500 6755736.0
0.17500 7294960.0
0.18500 7580806.0
0.19500 8011324.0
0.20500 8655807.0
0.21500 8879160.0
0.22500 9425639.0
0.23500 9815354.0
0.24500 10168298.0
0.25500 10911294.0
0.26500 11095978.0
0.27500 11640721.0
0.28500 12171973.0
0.29500 12436228.0
0.30500 13210001.0
0.31500 13409862.0
0.32500 13898699.0
0.33500 14534615.0
0.34500 14738139.0
0.35500 15499079.0
0.36500 15773000.0
0.37500 16199725.0
0.38500 17045408.0
0.39500 17256450.0
0.40500 17943744.0
0.41500 18280904.0
0.42500 18533280.0
0.43500 19464876.0
0.44500 19692572.0
0.45500 20172496.0
0.46500 20696074.0
0.47500 20870508.0
0.48500 21694092.0
0.49500 21883396.0
0.50500 22376680.0
0.51500 22833922.0
0.52500 22990072.0
0.53500 23745740.0
0.54500 23975118.0
0.55500 24217798.0
0.56500 24952434.0
0.57500 24989292.0
0.58500 25577228.0
0.59500 25669852.0
0.60500 25636428.0
0.61500 26240382.0
0.62500 26185964.0
0.63500 26477416.0
0.64500 26509188.0
0.65500 25921456.0
0.66500 25607178.0
0.67500 24605392.0
0.68500 23063748.0
0.69500 20842056.0
0.70500 17682874.0
0.71500 15145740.0
0.72500 12816868.0
0.73500 10916454.0
0.74500 9681706.0
0.75500 8484954.0
0.76500 7649403.0
0.77500 6961677.0
0.78500 6270989.0
0.79500 5816354.0
0.80500 5280545.0
0.81500 4901795.0
0.82500 4573500.0
0.83500 4223469.0
0.84500 3969174.0
0.85500 3680971.0
0.86500 3447343.0
0.87500 3277119.0
0.88500 3071717.0
0.89500 2947515.0
0.90500 2734447.0
0.91500 2548937.0
0.92500 2458069.0
0.93500 2330077.0
0.94500 2216439.0
0.95500 2111843.0
0.96500 1998461.0
0.97500 1931148.0
0.98500 1838483.0
0.99500 1756691.0
1.00500 1690719.0
1.01500 1600044.0
1.02500 1550558.0
1.03500 1479447.0
1.04500 1421730.0
1.05500 1370259.0
1.06500 1306807.0
1.07500 1260297.0
1.08500 1219507.0
1.09500 1170498.0
1.10500 1133515.0
1.11500 1093371.0
1.12500 1053024.0
1.13500 1018484.0
1.14500 983686.0
1.15500 953002.0
1.16500 915555.0
1.17500 887006.0
1.18500 856076.0
1.19500 825521.0
1.20500 807119.0
1.21500 774853.0
1.22500 747443.0
1.23500 732270.0
1.24500 708375.0
1.25500 689764.0
1.26500 669992.0
1.27500 644947.0
1.28500 627168.0
1.29500 607565.0
1.30500 591766.0
1.31500 573672.0
1.32500 568314.0
1.33500 545246.0
1.34500 524157.0
1.35500 518869.0
1.36500 508762.0
1.37500 488920.0
1.38500 482487.0
1.39500 474759.0
1.40500 460109.0
1.41500 448417.0
1.42500 440964.0
1.43500 424494.0
1.44500 410769.0
1.45500 408424.0
1.46500 403582.0
1.47500 385127.0
1.48500 380140.0
1.49500 376788.0
1.50500 360250.0
1.51500 357664.0
1.52500 359062.0
1.53500 344614.0
1.54500 337802.0
1.55500 339229.0
1.56500 338497.0
1.57500 326852.0
1.58500 320959.0
1.59500 326208.0
1.60500 311282.0
1.61500 304823.0
1.62500 310832.0
1.63500 303944.0
1.64500 292841.0
1.65500 299064.0
1.66500 301255.0
1.67500 286894.0
1.68500 281691.0
1.69500 286093.0
1.70500 282126.0
1.71500 274266.0
1.72500 286387.0
1.73500 289385.0
1.74500 281197.0
1.75500 282078.0
1.76500 296528.0
1.77500 297201.0
1.78500 292760.0
1.79500 305275.0
1.80500 310869.0
1.81500 308007.0
1.82500 325357.0
1.83500 353976.0
1.84500 360635.0
1.85500 352562.0
1.86500 374137.0
1.87500 395906.0
1.88500 404017.0
1.89500 439046.0
1.90500 486186.0
1.91500 510793.0
1.92500 572491.0
1.93500 734605.0
1.94500 942647.0
1.95500 1185696.0
1.96500 1622523.0
1.97500 2227755.0
1.98500 3031629.0
1.99500 4480843.0
2.00500 7060870.0
2.01500 10475283.0
2.02500 12818088.0
2.03500 12523723.0
2.04500 9699982.0
2.05500 6027877.0
2.06500 2956297.0
2.07500 1490606.0
2.08500 980398.0
2.09500 670032.0
2.10500 469930.0
2.11500 371249.0
2.12500 304202.0
2.13500 239017.0
2.14500 194456.0
2.15500 174360.0
2.16500 146382.0
2.17500 119857.0
2.18500 107684.0
2.19500 95501.0
2.20500 82183.0
2.21500 74540.0
2.22500 71202.0
2.23500 62920.0
2.24500 53582.0
2.25500 51554.0
2.26500 48904.0
2.27500 43636.0
2.28500 41002.0
2.29500 39273.0
2.30500 36174.0
2.31500 32410.0
2.32500 31149.0
2.33500 30437.0
2.34500 26854.0
2.35500 24860.0
2.36500 24892.0
2.37500 23886.0
2.38500 22137.0
2.39500 22173.0
2.40500 23662.0
2.41500 22195.0
2.42500 20212.0
2.43500 20892.0
2.44500 20814.0
2.45500 19196.0
2.46500 18376.0
2.47500 19307.0
2.48500 18730.0
2.49500 17199.0
2.50500 16979.0
2.51500 17475.0
2.52500 16531.0
2.53500 15081.0
2.54500 15086.0
2.55500 14998.0
2.56500 14245.0
2.57500 13302.0
2.58500 13909.0
2.59500 13948.0
2.60500 12643.0
2.61500 12304.0
2.62500 12951.0
2.63500 12213.0
2.64500 11640.0
2.65500 11799.0
2.66500 12359.0
2.67500 11529.0
2.68500 10985.0
2.69500 11050.0
2.70500 11104.0
2.71500 9943.0
2.72500 9967.0
2.73500 10540.0
2.74500 9704.0
2.75500 9202.0
2.76500 9473.0
2.77500 9413.0
2.78500 8848.0
2.79500 8434.0
2.80500 8580.0
2.81500 8455.0
2.82500 7775.0
2.83500 7868.0
2.84500 8231.0
2.85500 8155.0
2.86500 7267.0
2.87500 7274.0
2.88500 7267.0
2.89500 6842.0
2.90500 6497.0
2.91500 6702.0
2.92500 6718.0
2.93500 6209.0
2.94500 5984.0
2.95500 6390.0
2.96500 6292.0
2.97500 5964.0
2.98500 5691.0
2.99500 5703.0
3.00500 5440.0
3.01500 5133.0
3.02500 5368.0
3.03500 5220.0
3.04500 5022.0
3.05500 5000.0
3.06500 5267.0
3.07500 5122.0
3.08500 4756.0
3.09500 4524.0
3.10500 4852.0
3.11500 4696.0
3.12500 4270.0
3.13500 4533.0
3.14500 4525.0
3.15500 4274.0
3.16500 3798.0
3.17500 3987.0
3.18500 3944.0
3.19500 3756.0
3.20500 3699.0
3.21500 3558.0
3.22500 3371.0
3.23500 3176.0
3.24500 3225.0
3.25500 3353.0
3.26500 3280.0
3.27500 2997.0
3.28500 3078.0
3.29500 3073.0
3.30500 2911.0
3.31500 2883.0
3.32500 2992.0
3.33500 2945.0
3.34500 2709.0
3.35500 2650.0
3.36500 2701.0
3.37500 2642.0
3.38500 2440.0
3.39500 2355.0
3.40500 2491.0
3.41500 2440.0
3.42500 2304.0
3.43500 2379.0
3.44500 2608.0
3.45500 2194.0
3.46500 2028.0
3.47500 2014.0
3.48500 2105.0
3.49500 1798.0
3.50500 2115.0
3.51500 2311.0
3.52500 2183.0
3.53500 1792.0
3.54500 1875.0
3.55500 1920.0
3.56500 1741.0
3.57500 1667.0
3.58500 1687.0
3.59500 1718.0
3.60500 1565.0
3.61500 1579.0
3.62500 1722.0
3.63500 1638.0
3.64500 1482.0
3.65500 1582.0
3.66500 1566.0
3.67500 1637.0
3.68500 1553.0
3.69500 1427.0
3.70500 1353.0
3.71500 1434.0
3.72500 1298.0
3.73500 1181.0
3.74500 1317.0
3.75500 1358.0
3.76500 1795.0
3.77500 2115.0
3.78500 2399.0
3.79500 2287.0
3.80500 2492.0
3.81500 2500.0
3.82500 2467.0
3.83500 2262.0
3.84500 2297.0
3.85500 2894.0
3.86500 3083.0
3.87500 2853.0
3.88500 2295.0
3.89500 1984.0
3.90500 1752.0
3.91500 1861.0
3.92500 1925.0
3.93500 2011.0
3.94500 2043.0
3.95500 2255.0
3.96500 2251.0
3.97500 2056.0
3.98500 1849.0
3.99500 1776.0
4.00500 1616.0
4.01500 1497.0
4.02500 1553.0
4.03500 1629.0
4.04500 1414.0
4.05500 1311.0
4.06500 1235.0
4.07500 1282.0
4.08500 1242.0
4.09500 1225.0
4.10500 1276.0
4.11500 1191.0
4.12500 1102.0
4.13500 1138.0
4.14500 1169.0
4.15500 1159.0
4.16500 1089.0
4.17500 1020.0
4.18500 900.0
4.19500 990.0
4.20500 916.0
4.21500 1021.0
4.22500 934.0
4.23500 916.0
4.24500 904.0
4.25500 846.0
4.26500 779.0
4.27500 776.0
4.28500 874.0
4.29500 750.0
4.30500 736.0
4.31500 764.0
4.32500 828.0
4.33500 722.0
4.34500 676.0
4.35500 679.0
4.36500 562.0
4.37500 618.0
4.38500 618.0
4.39500 625.0
4.40500 628.0
4.41500 700.0
4.42500 650.0
4.43500 632.0
4.44500 669.0
4.45500 644.0
4.46500 617.0
4.47500 560.0
4.48500 560.0
4.49500 573.0
4.50500 679.0
4.51500 633.0
4.52500 516.0
4.53500 519.0
4.54500 554.0
4.55500 607.0
4.56500 700.0
4.57500 654.0
4.58500 637.0
4.59500 671.0
4.60500 511.0
4.61500 533.0
4.62500 531.0
4.63500 504.0
4.64500 495.0
4.65500 471.0
4.66500 456.0
4.67500 483.0
4.68500 481.0
4.69500 2230.0
4.70500 496.0
4.71500 421.0
4.72500 445.0
4.73500 427.0
4.74500 474.0
4.75500 421.0
4.76500 412.0
4.77500 524.0
4.78500 440.0
4.79500 436.0
4.80500 598.0
4.81500 506.0
4.82500 509.0
4.83500 515.0
4.84500 499.0
4.85500 430.0
4.86500 401.0
4.87500 383.0
4.88500 420.0
4.89500 441.0
4.90500 381.0
4.91500 355.0
4.92500 380.0
4.93500 359.0
4.94500 441.0
4.95500 461.0
4.96500 426.0
4.97500 468.0
4.98500 404.0
4.99500 385.0
5.00500 393.0
5.01500 381.0
5.02500 371.0
5.03500 350.0
5.04500 350.0
5.05500 394.0
5.06500 409.0
5.07500 442.0
5.08500 439.0
5.09500 413.0
5.10500 329.0
5.11500 360.0
5.12500 309.0
5.13500 289.0
5.14500 298.0
5.15500 355.0
5.16500 429.0
5.17500 479.0
5.18500 391.0
5.19500 362.0
5.20500 435.0
5.21500 281.0
5.22500 307.0
5.23500 386.0
5.24500 324.0
5.25500 315.0
5.26500 374.0
5.27500 354.0
5.28500 319.0
5.29500 334.0
5.30500 391.0
5.31500 405.0
5.32500 372.0
5.33500 394.0
5.34500 346.0
5.35500 323.0
5.36500 321.0
5.37500 385.0
5.38500 369.0
5.39500 414.0
5.40500 392.0
5.41500 369.0
5.42500 333.0
5.43500 354.0
5.44500 386.0
5.45500 519.0
5.46500 593.0
5.47500 725.0
5.48500 561.0
5.49500 599.0
5.50500 471.0
5.51500 567.0
5.52500 492.0
5.53500 482.0
5.54500 592.0
5.55500 513.0
5.56500 463.0
5.57500 510.0
5.58500 485.0
5.59500 450.0
5.60500 331.0
5.61500 381.0
5.62500 418.0
5.63500 448.0
5.64500 537.0
5.65500 553.0
5.66500 634.0
5.67500 839.0
5.68500 873.0
5.69500 1119.0
5.70500 1167.0
5.71500 1432.0
5.72500 1753.0
5.73500 2435.0
5.74500 3775.0
5.75500 5318.0
5.76500 6619.0
5.77500 6953.0
5.78500 6251.0
5.79500 4967.0
5.80500 3681.0
5.81500 2830.0
5.82500 2150.0
5.83500 1758.0
5.84500 1340.0
5.85500 1103.0
5.86500 896.0
5.87500 804.0
5.88500 711.0
5.89500 684.0
5.90500 761.0
5.91500 757.0
5.92500 823.0
5.93500 727.0
5.94500 715.0
5.95500 497.0
5.96500 495.0
5.97500 443.0
5.98500 440.0
5.99500 499.0
6.00500 467.0
6.01500 493.0
6.02500 483.0
6.03500 413.0
6.04500 395.0
6.05500 302.0
6.06500 299.0
6.07500 322.0
6.08500 307.0
6.09500 342.0
6.10500 281.0
6.11500 232.0
6.12500 237.0
6.13500 287.0
6.14500 245.0
6.15500 273.0
6.16500 288.0
6.17500 268.0
6.18500 288.0
6.19500 330.0
6.20500 329.0
6.21500 421.0
6.22500 412.0
6.23500 398.0
6.24500 397.0
6.25500 353.0
6.26500 375.0
6.27500 422.0
6.28500 405.0
6.29500 583.0
6.30500 488.0
6.31500 372.0
6.32500 368.0
6.33500 385.0
6.34500 342.0
6.35500 300.0
6.36500 314.0
6.37500 253.0
6.38500 222.0
6.39500 289.0
6.40500 272.0
6.41500 266.0
6.42500 334.0
6.43500 270.0
6.44500 242.0
6.45500 248.0
6.46500 243.0
6.47500 198.0
6.48500 216.0
6.49500 205.0
6.50500 240.0
6.51500 233.0
6.52500 245.0
6.53500 209.0
6.54500 228.0
6.55500 202.0
6.56500 255.0
6.57500 275.0
6.58500 278.0
6.59500 259.0
6.60500 289.0
6.61500 278.0
6.62500 284.0
6.63500 232.0
6.64500 257.0
6.65500 247.0
6.66500 196.0
6.67500 270.0
6.68500 257.0
6.69500 277.0
6.70500 221.0
6.71500 225.0
6.72500 202.0
6.73500 244.0
6.74500 207.0
6.75500 218.0
6.76500 220.0
6.77500 208.0
6.78500 223.0
6.79500 216.0
6.80500 154.0
6.81500 221.0
6.82500 189.0
6.83500 211.0
6.84500 165.0
6.85500 169.0
6.86500 201.0
6.87500 151.0
6.88500 191.0
6.89500 186.0
6.90500 194.0
6.91500 214.0
6.92500 219.0
6.93500 178.0
6.94500 173.0
6.95500 178.0
6.96500 179.0
6.97500 162.0
6.98500 154.0
6.99500 107.0
7.00500 119.0
7.01500 127.0
7.02500 143.0
7.03500 145.0
7.04500 153.0
7.05500 158.0
7.06500 190.0
7.07500 186.0
7.08500 145.0
7.09500 166.0
7.10500 145.0
7.11500 192.0
7.12500 120.0
7.13500 180.0
7.14500 185.0
7.15500 136.0
7.16500 159.0
7.17500 185.0
7.18500 175.0
7.19500 151.0
7.20500 146.0
7.21500 163.0
7.22500 176.0
7.23500 148.0
7.24500 151.0
7.25500 192.0
7.26500 194.0
7.27500 199.0
7.28500 170.0
7.29500 139.0
7.30500 170.0
7.31500 189.0
7.32500 238.0
7.33500 246.0
7.34500 213.0
7.35500 251.0
7.36500 247.0
7.37500 220.0
7.38500 219.0
7.39500 194.0
7.40500 172.0
7.41500 173.0
7.42500 149.0
7.43500 107.0
7.44500 122.0
7.45500 102.0
7.46500 117.0
7.47500 159.0
7.48500 186.0
7.49500 210.0
7.50500 237.0
7.51500 226.0
7.52500 152.0
7.53500 191.0
7.54500 158.0
7.55500 219.0
7.56500 228.0
7.57500 288.0
7.58500 263.0
7.59500 290.0
7.60500 326.0
7.61500 388.0
7.62500 452.0
7.63500 489.0
7.64500 543.0
7.65500 589.0
7.66500 580.0
7.67500 595.0
7.68500 598.0
7.69500 581.0
7.70500 521.0
7.71500 447.0
7.72500 418.0
7.73500 356.0
7.74500 245.0
7.75500 265.0
7.76500 232.0
7.77500 208.0
7.78500 183.0
7.79500 167.0
7.80500 152.0
7.81500 145.0
7.82500 167.0
7.83500 139.0
7.84500 108.0
7.85500 128.0
7.86500 133.0
7.87500 129.0
7.88500 110.0
7.89500 124.0
7.90500 91.0
7.91500 129.0
7.92500 119.0
7.93500 140.0
7.94500 118.0
7.95500 169.0
7.96500 168.0
7.97500 158.0
7.98500 186.0
7.99500 210.0
