0.00500 30165078.0
0.01500 33717460.0
0.02500 29888716.0
0.03500 23286844.0
0.04500 16028309.0
0.05500 9535423.0
0.06500 5873788.0
0.07500 5068070.0
0.08500 5390530.0
0.09500 5940684.0
0.10500 6550911.0
0.11500 7129755.0
0.12500 7689026.0
0.13500 8323508.0
0.14500 8879382.0
0.15500 9428981.0
0.16500 9944087.0
0.17500 10498735.0
0.18500 11041636.0
0.19500 11577555.0
0.20500 12016864.0
0.21500 12524777.0
0.22500 13015162.0
0.23500 13597787.0
0.24500 14087588.0
0.25500 14470849.0
0.26500 15064630.0
0.27500 15499861.0
0.28500 16000718.0
0.29500 16554041.0
0.30500 16825510.0
0.31500 17163704.0
0.32500 17570562.0
0.33500 18069404.0
0.34500 18505588.0
0.35500 18834696.0
0.36500 19259394.0
0.37500 19520368.0
0.38500 20005304.0
0.39500 20399772.0
0.40500 20710356.0
0.41500 21032908.0
0.42500 21246988.0
0.43500 21655288.0
0.44500 21860820.0
0.45500 22061468.0
0.46500 22293476.0
0.47500 22461212.0
0.48500 22580698.0
0.49500 22905258.0
0.50500 23206788.0
0.51500 23474436.0
0.52500 23612948.0
0.53500 23958360.0
0.54500 24042716.0
0.55500 24188164.0
0.56500 24348468.0
0.57500 24275584.0
0.58500 24415536.0
0.59500 24514556.0
0.60500 24522488.0
0.61500 24794404.0
0.62500 24928374.0
0.63500 24875636.0
0.64500 24910660.0
0.65500 24739224.0
0.66500 24579114.0
0.67500 24289952.0
0.68500 23975340.0
0.69500 23562820.0
0.70500 22984440.0
0.71500 22015960.0
0.72500 20362592.0
0.73500 18093364.0
0.74500 15495611.0
0.75500 12805588.0
0.76500 10687200.0
0.77500 9045877.0
0.78500 7767365.0
0.79500 6843859.0
0.80500 5994269.0
0.81500 5343083.0
0.82500 4832961.0
0.83500 4388473.0
0.84500 4030662.0
0.85500 3714809.0
0.86500 3393091.0
0.87500 3128686.0
0.88500 2872437.0
0.89500 2667713.0
0.90500 2486470.0
0.91500 2293504.0
0.92500 2171154.0
0.93500 2005827.0
0.94500 1878492.0
0.95500 1771540.0
0.96500 1650204.0
0.97500 1556838.0
0.98500 1468403.0
0.99500 1366080.0
1.00500 1294646.0
1.01500 1227699.0
1.02500 1151979.0
1.03500 1109322.0
1.04500 1064053.0
1.05500 984369.0
1.06500 947823.0
1.07500 907353.0
1.08500 851014.0
1.09500 818211.0
1.10500 784885.0
1.11500 734437.0
1.12500 703246.0
1.13500 683445.0
1.14500 647041.0
1.15500 610604.0
1.16500 597656.0
1.17500 573935.0
1.18500 535961.0
1.19500 522191.0
1.20500 510379.0
1.21500 476907.0
1.22500 449480.0
1.23500 445158.0
1.24500 431173.0
1.25500 401231.0
1.26500 394600.0
1.27500 390212.0
1.28500 365364.0
1.29500 344381.0
1.30500 344549.0
1.31500 331554.0
1.32500 306143.0
1.33500 297631.0
1.34500 300833.0
1.35500 284006.0
1.36500 264790.0
1.37500 264248.0
1.38500 264485.0
1.39500 247479.0
1.40500 234146.0
1.41500 237123.0
1.42500 233664.0
1.43500 215865.0
1.44500 207659.0
1.45500 210683.0
1.46500 204798.0
1.47500 188357.0
1.48500 183891.0
1.49500 186495.0
1.50500 179398.0
1.51500 165791.0
1.52500 164794.0
1.53500 167537.0
1.54500 159657.0
1.55500 147595.0
1.56500 150377.0
1.57500 151076.0
1.58500 140894.0
1.59500 131544.0
1.60500 134642.0
1.61500 135762.0
1.62500 127284.0
1.63500 118292.0
1.64500 121417.0
1.65500 123248.0
1.66500 114407.0
1.67500 107895.0
1.68500 110788.0
1.69500 112321.0
1.70500 103602.0
1.71500 98359.0
1.72500 102398.0
1.73500 101330.0
1.74500 94219.0
1.75500 89567.0
1.76500 93671.0
1.77500 95664.0
1.78500 87810.0
1.79500 83073.0
1.80500 87324.0
1.81500 87572.0
1.82500 80696.0
1.83500 76595.0
1.84500 79568.0
1.85500 80545.0
1.86500 73824.0
1.87500 70322.0
1.88500 73196.0
1.89500 75865.0
1.90500 69985.0
1.91500 65737.0
1.92500 69775.0
1.93500 72633.0
1.94500 67332.0
1.95500 62793.0
1.96500 66034.0
1.97500 68797.0
1.98500 65134.0
1.99500 60668.0
2.00500 63353.0
2.01500 67210.0
2.02500 63800.0
2.03500 59386.0
2.04500 61283.0
2.05500 66495.0
2.06500 64248.0
2.07500 60065.0
2.08500 61872.0
2.09500 68898.0
2.10500 68065.0
2.11500 62609.0
2.12500 64259.0
2.13500 72595.0
2.14500 73174.0
2.15500 68373.0
2.16500 69436.0
2.17500 80514.0
2.18500 85941.0
2.19500 82373.0
2.20500 84905.0
2.21500 101600.0
2.22500 116506.0
2.23500 117952.0
2.24500 125769.0
2.25500 163124.0
2.26500 212586.0
2.27500 253838.0
2.28500 341087.0
2.29500 599793.0
2.30500 1058110.0
2.31500 1548797.0
2.32500 1867283.0
2.33500 1839614.0
2.34500 1543647.0
2.35500 1121505.0
2.36500 786205.0
2.37500 560259.0
2.38500 446305.0
2.39500 369131.0
2.40500 301531.0
2.41500 252692.0
2.42500 217547.0
2.43500 189707.0
2.44500 167266.0
2.45500 147171.0
2.46500 130592.0
2.47500 117377.0
2.48500 105455.0
2.49500 97000.0
2.50500 87000.0
2.51500 78929.0
2.52500 72930.0
2.53500 66811.0
2.54500 61030.0
2.55500 56241.0
2.56500 52470.0
2.57500 48017.0
2.58500 44739.0
2.59500 41849.0
2.60500 38765.0
2.61500 36952.0
2.62500 34917.0
2.63500 32108.0
2.64500 30288.0
2.65500 28317.0
2.66500 26987.0
2.67500 25295.0
2.68500 24115.0
2.69500 22839.0
2.70500 21551.0
2.71500 20413.0
2.72500 19114.0
2.73500 18276.0
2.74500 17462.0
2.75500 16829.0
2.76500 16307.0
2.77500 15316.0
2.78500 14397.0
2.79500 14155.0
2.80500 13282.0
2.81500 12864.0
2.82500 12210.0
2.83500 11943.0
2.84500 11606.0
2.85500 10939.0
2.86500 10429.0
2.87500 10327.0
2.88500 9949.0
2.89500 9485.0
2.90500 9154.0
2.91500 9016.0
2.92500 8534.0
2.93500 8149.0
2.94500 7946.0
2.95500 7564.0
2.96500 7147.0
2.97500 7167.0
2.98500 6830.0
2.99500 6654.0
3.00500 6320.0
3.01500 6224.0
3.02500 5984.0
3.03500 5631.0
3.04500 5618.0
3.05500 5490.0
3.06500 5438.0
3.07500 5166.0
3.08500 5017.0
3.09500 4704.0
3.10500 4633.0
3.11500 4385.0
3.12500 4407.0
3.13500 4170.0
3.14500 4035.0
3.15500 3798.0
3.16500 3822.0
3.17500 3780.0
3.18500 3432.0
3.19500 3616.0
3.20500 3422.0
3.21500 3270.0
3.22500 3182.0
3.23500 3129.0
3.24500 3099.0
3.25500 2921.0
3.26500 2968.0
3.27500 2826.0
3.28500 2720.0
3.29500 2611.0
3.30500 2601.0
3.31500 2493.0
3.32500 2427.0
3.33500 2389.0
3.34500 2148.0
3.35500 2216.0
3.36500 2218.0
3.37500 2267.0
3.38500 2119.0
3.39500 2123.0
3.40500 2062.0
3.41500 1935.0
3.42500 1837.0
3.43500 1898.0
3.44500 1785.0
3.45500 1793.0
3.46500 1694.0
3.47500 1631.0
3.48500 1717.0
3.49500 1774.0
3.50500 1669.0
3.51500 1632.0
3.52500 1572.0
3.53500 1453.0
3.54500 1524.0
3.55500 1250.0
3.56500 1320.0
3.57500 1304.0
3.58500 1270.0
3.59500 1256.0
3.60500 1349.0
3.61500 1279.0
3.62500 1309.0
3.63500 1240.0
3.64500 1361.0
3.65500 1234.0
3.66500 1163.0
3.67500 1140.0
3.68500 1067.0
3.69500 998.0
3.70500 955.0
3.71500 1041.0
3.72500 971.0
3.73500 966.0
3.74500 914.0
3.75500 960.0
3.76500 1065.0
3.77500 887.0
3.78500 855.0
3.79500 818.0
3.80500 753.0
3.81500 776.0
3.82500 870.0
3.83500 865.0
3.84500 768.0
3.85500 815.0
3.86500 857.0
3.87500 742.0
3.88500 829.0
3.89500 723.0
3.90500 689.0
3.91500 729.0
3.92500 819.0
3.93500 721.0
3.94500 720.0
3.95500 682.0
3.96500 617.0
3.97500 657.0
3.98500 579.0
3.99500 640.0
4.00500 617.0
4.01500 645.0
4.02500 602.0
4.03500 644.0
4.04500 651.0
4.05500 727.0
4.06500 808.0
4.07500 819.0
4.08500 542.0
4.09500 643.0
4.10500 654.0
4.11500 649.0
4.12500 668.0
4.13500 683.0
4.14500 713.0
4.15500 835.0
4.16500 1085.0
4.17500 837.0
4.18500 745.0
4.19500 803.0
4.20500 694.0
4.21500 834.0
4.22500 914.0
4.23500 881.0
4.24500 924.0
4.25500 856.0
4.26500 876.0
4.27500 882.0
4.28500 747.0
4.29500 710.0
4.30500 762.0
4.31500 721.0
4.32500 784.0
4.33500 638.0
4.34500 761.0
4.35500 817.0
4.36500 953.0
4.37500 1073.0
4.38500 1015.0
4.39500 1297.0
4.40500 1658.0
4.41500 1907.0
4.42500 2503.0
4.43500 3855.0
4.44500 6156.0
4.45500 10538.0
4.46500 16212.0
4.47500 19928.0
4.48500 21563.0
4.49500 20184.0
4.50500 16565.0
4.51500 12509.0
4.52500 9924.0
4.53500 8337.0
4.54500 6999.0
4.55500 6180.0
4.56500 5123.0
4.57500 4491.0
4.58500 4081.0
4.59500 3808.0
4.60500 3398.0
4.61500 3185.0
4.62500 3039.0
4.63500 2957.0
4.64500 2647.0
4.65500 2555.0
4.66500 2407.0
4.67500 2253.0
4.68500 2063.0
4.69500 1803.0
4.70500 1687.0
4.71500 1826.0
4.72500 1705.0
4.73500 1663.0
4.74500 1383.0
4.75500 1145.0
4.76500 1113.0
4.77500 1095.0
4.78500 1056.0
4.79500 1088.0
4.80500 1059.0
4.81500 1081.0
4.82500 867.0
4.83500 790.0
4.84500 856.0
4.85500 779.0
4.86500 785.0
4.87500 757.0
4.88500 694.0
4.89500 649.0
4.90500 625.0
4.91500 639.0
4.92500 598.0
4.93500 609.0
4.94500 623.0
4.95500 488.0
4.96500 582.0
4.97500 630.0
4.98500 574.0
4.99500 616.0
5.00500 594.0
5.01500 658.0
5.02500 667.0
5.03500 605.0
5.04500 680.0
5.05500 704.0
5.06500 702.0
5.07500 646.0
5.08500 756.0
5.09500 741.0
5.10500 597.0
5.11500 665.0
5.12500 612.0
5.13500 681.0
5.14500 625.0
5.15500 605.0
5.16500 587.0
5.17500 721.0
5.18500 582.0
5.19500 597.0
5.20500 500.0
5.21500 424.0
5.22500 424.0
5.23500 534.0
5.24500 614.0
5.25500 597.0
5.26500 558.0
5.27500 516.0
5.28500 675.0
5.29500 605.0
5.30500 632.0
5.31500 523.0
5.32500 302.0
5.33500 388.0
5.34500 385.0
5.35500 411.0
5.36500 486.0
5.37500 438.0
5.38500 413.0
5.39500 469.0
5.40500 587.0
5.41500 690.0
5.42500 525.0
5.43500 479.0
5.44500 411.0
5.45500 476.0
5.46500 465.0
5.47500 439.0
5.48500 464.0
5.49500 407.0
5.50500 471.0
5.51500 483.0
5.52500 430.0
5.53500 499.0
5.54500 531.0
5.55500 533.0
5.56500 444.0
5.57500 386.0
5.58500 413.0
5.59500 334.0
5.60500 369.0
5.61500 312.0
5.62500 475.0
5.63500 479.0
5.64500 448.0
5.65500 394.0
5.66500 443.0
5.67500 540.0
5.68500 584.0
5.69500 629.0
5.70500 694.0
5.71500 514.0
5.72500 442.0
5.73500 521.0
5.74500 523.0
5.75500 448.0
5.76500 504.0
5.77500 502.0
5.78500 577.0
5.79500 577.0
5.80500 731.0
5.81500 674.0
5.82500 614.0
5.83500 611.0
5.84500 719.0
5.85500 736.0
5.86500 700.0
5.87500 702.0
5.88500 743.0
5.89500 736.0
5.90500 711.0
5.91500 779.0
5.92500 721.0
5.93500 761.0
5.94500 649.0
5.95500 586.0
5.96500 697.0
5.97500 596.0
5.98500 702.0
5.99500 727.0
6.00500 479.0
6.01500 519.0
6.02500 596.0
6.03500 676.0
6.04500 596.0
6.05500 715.0
6.06500 676.0
6.07500 594.0
6.08500 605.0
6.09500 463.0
6.10500 436.0
6.11500 400.0
6.12500 327.0
6.13500 328.0
6.14500 533.0
6.15500 434.0
6.16500 604.0
6.17500 397.0
6.18500 380.0
6.19500 330.0
6.20500 409.0
6.21500 370.0
6.22500 465.0
6.23500 359.0
6.24500 335.0
6.25500 328.0
6.26500 289.0
6.27500 233.0
6.28500 258.0
6.29500 301.0
6.30500 317.0
6.31500 281.0
6.32500 303.0
6.33500 366.0
6.34500 420.0
6.35500 281.0
6.36500 303.0
6.37500 327.0
6.38500 331.0
6.39500 361.0
6.40500 452.0
6.41500 411.0
6.42500 385.0
6.43500 416.0
6.44500 374.0
6.45500 358.0
6.46500 366.0
6.47500 343.0
6.48500 361.0
6.49500 446.0
6.50500 356.0
6.51500 401.0
6.52500 578.0
6.53500 641.0
6.54500 519.0
6.55500 482.0
6.56500 582.0
6.57500 467.0
6.58500 610.0
6.59500 582.0
6.60500 484.0
6.61500 516.0
6.62500 700.0
6.63500 756.0
6.64500 791.0
6.65500 819.0
6.66500 840.0
6.67500 832.0
6.68500 754.0
6.69500 648.0
6.70500 552.0
6.71500 479.0
6.72500 391.0
6.73500 369.0
6.74500 306.0
6.75500 345.0
6.76500 378.0
6.77500 342.0
6.78500 302.0
6.79500 389.0
6.80500 419.0
6.81500 418.0
6.82500 483.0
6.83500 533.0
6.84500 510.0
6.85500 489.0
6.86500 451.0
6.87500 419.0
6.88500 494.0
6.89500 427.0
6.90500 410.0
6.91500 383.0
6.92500 418.0
6.93500 423.0
6.94500 352.0
6.95500 513.0
6.96500 551.0
6.97500 596.0
6.98500 539.0
6.99500 468.0
7.00500 382.0
7.01500 352.0
7.02500 432.0
7.03500 349.0
7.04500 302.0
7.05500 235.0
7.06500 256.0
7.07500 216.0
7.08500 222.0
7.09500 264.0
7.10500 301.0
7.11500 320.0
7.12500 240.0
7.13500 358.0
7.14500 355.0
7.15500 419.0
7.16500 411.0
7.17500 328.0
7.18500 352.0
7.19500 299.0
7.20500 338.0
7.21500 321.0
7.22500 381.0
7.23500 374.0
7.24500 407.0
7.25500 364.0
7.26500 311.0
7.27500 314.0
7.28500 244.0
7.29500 320.0
7.30500 367.0
