0.00500 38786908.0
0.01500 44672296.0
0.02500 36916112.0
0.03500 23840600.0
0.04500 13674698.0
0.05500 7456602.0
0.06500 4888548.0
0.07500 4575909.0
0.08500 4957689.0
0.09500 5509974.0
0.10500 6048215.0
0.11500 6562165.0
0.12500 7159729.0
0.13500 7705436.0
0.14500 8243396.0
0.15500 8761679.0
0.16500 9239564.0
0.17500 9893207.0
0.18500 10396517.0
0.19500 10923598.0
0.20500 11407754.0
0.21500 11753098.0
0.22500 12382975.0
0.23500 12912173.0
0.24500 13430569.0
0.25500 13989023.0
0.26500 14431222.0
0.27500 14973912.0
0.28500 15518123.0
0.29500 15964667.0
0.30500 16422530.0
0.31500 16758714.0
0.32500 17233144.0
0.33500 17761872.0
0.34500 18137150.0
0.35500 18596340.0
0.36500 18977188.0
0.37500 19387300.0
0.38500 19873064.0
0.39500 20008322.0
0.40500 20454620.0
0.41500 20784536.0
0.42500 21201872.0
0.43500 21765444.0
0.44500 22029468.0
0.45500 22423670.0
0.46500 22843668.0
0.47500 23224488.0
0.48500 23623200.0
0.49500 23920444.0
0.50500 24201484.0
0.51500 24501158.0
0.52500 24790546.0
0.53500 25193600.0
0.54500 25535960.0
0.55500 25639264.0
0.56500 25691110.0
0.57500 25833910.0
0.58500 26059254.0
0.59500 26218144.0
0.60500 26215334.0
0.61500 26374694.0
0.62500 26391184.0
0.63500 26283466.0
0.64500 26040980.0
0.65500 25541212.0
0.66500 24727352.0
0.67500 23209164.0
0.68500 20984002.0
0.69500 18123496.0
0.70500 15025851.0
0.71500 12446091.0
0.72500 10435803.0
0.73500 8988764.0
0.74500 7848712.0
0.75500 6879263.0
0.76500 6152307.0
0.77500 5476364.0
0.78500 4962993.0
0.79500 4513907.0
0.80500 4100862.0
0.81500 3772210.0
0.82500 3483044.0
0.83500 3204239.0
0.84500 2982641.0
0.85500 2756706.0
0.86500 2571386.0
0.87500 2406463.0
0.88500 2246800.0
0.89500 2114657.0
0.90500 1998671.0
0.91500 1875485.0
0.92500 1765910.0
0.93500 1650757.0
0.94500 1562146.0
0.95500 1476419.0
0.96500 1383103.0
0.97500 1325249.0
0.98500 1262726.0
0.99500 1198765.0
1.00500 1148572.0
1.01500 1078520.0
1.02500 1038652.0
1.03500 988255.0
1.04500 931162.0
1.05500 899090.0
1.06500 858129.0
1.07500 812811.0
1.08500 796273.0
1.09500 759988.0
1.10500 715503.0
1.11500 695659.0
1.12500 657091.0
1.13500 631533.0
1.14500 615631.0
1.15500 582242.0
1.16500 561160.0
1.17500 550275.0
1.18500 519308.0
1.19500 502151.0
1.20500 506857.0
1.21500 468740.0
1.22500 453936.0
1.23500 449059.0
1.24500 419738.0
1.25500 408677.0
1.26500 400684.0
1.27500 380555.0
1.28500 366357.0
1.29500 367675.0
1.30500 349734.0
1.31500 335636.0
1.32500 342559.0
1.33500 327659.0
1.34500 308644.0
1.35500 312597.0
1.36500 302591.0
1.37500 279361.0
1.38500 282038.0
1.39500 280482.0
1.40500 262629.0
1.41500 264165.0
1.42500 267203.0
1.43500 249509.0
1.44500 244330.0
1.45500 252536.0
1.46500 238451.0
1.47500 225927.0
1.48500 235506.0
1.49500 230797.0
1.50500 215317.0
1.51500 223018.0
1.52500 225662.0
1.53500 209020.0
1.54500 209485.0
1.55500 218578.0
1.56500 204743.0
1.57500 196844.0
1.58500 209995.0
1.59500 203796.0
1.60500 188327.0
1.61500 199941.0
1.62500 208358.0
1.63500 194855.0
1.64500 199987.0
1.65500 216103.0
1.66500 205354.0
1.67500 200483.0
1.68500 218730.0
1.69500 220139.0
1.70500 203708.0
1.71500 214997.0
1.72500 226433.0
1.73500 209783.0
1.74500 215922.0
1.75500 246777.0
1.76500 250374.0
1.77500 254657.0
1.78500 295903.0
1.79500 315863.0
1.80500 298134.0
1.81500 320420.0
1.82500 357255.0
1.83500 347904.0
1.84500 349560.0
1.85500 419794.0
1.86500 472766.0
1.87500 532114.0
1.88500 726043.0
1.89500 906076.0
1.90500 1004761.0
1.91500 1281019.0
1.92500 1779456.0
1.93500 2307201.0
1.94500 3682215.0
1.95500 7714666.0
1.96500 13928733.0
1.97500 18951456.0
1.98500 20980760.0
1.99500 18801578.0
2.00500 13387285.0
2.01500 7336890.0
2.02500 3579415.0
2.03500 1887860.0
2.04500 1140126.0
2.05500 661295.0
2.06500 443553.0
2.07500 354634.0
2.08500 256102.0
2.09500 217294.0
2.10500 216410.0
2.11500 177180.0
2.12500 131040.0
2.13500 115634.0
2.14500 104154.0
2.15500 77748.0
2.16500 62492.0
2.17500 60120.0
2.18500 51119.0
2.19500 42117.0
2.20500 43096.0
2.21500 42268.0
2.22500 34876.0
2.23500 31895.0
2.24500 33575.0
2.25500 28837.0
2.26500 22312.0
2.27500 21740.0
2.28500 21461.0
2.29500 17959.0
2.30500 16996.0
2.31500 18553.0
2.32500 16635.0
2.33500 14076.0
2.34500 15193.0
2.35500 15342.0
2.36500 12947.0
2.37500 11241.0
2.38500 12170.0
2.39500 11153.0
2.40500 9479.0
2.41500 9618.0
2.42500 10369.0
2.43500 9301.0
2.44500 8463.0
2.45500 9319.0
2.46500 8954.0
2.47500 7449.0
2.48500 7767.0
2.49500 8388.0
2.50500 7495.0
2.51500 6858.0
2.52500 7493.0
2.53500 7337.0
2.54500 6361.0
2.55500 6049.0
2.56500 6407.0
2.57500 5796.0
2.58500 5095.0
2.59500 5557.0
2.60500 5990.0
2.61500 5357.0
2.62500 5036.0
2.63500 5720.0
2.64500 5477.0
2.65500 4630.0
2.66500 4998.0
2.67500 5283.0
2.68500 4715.0
2.69500 4230.0
2.70500 4693.0
2.71500 4659.0
2.72500 4043.0
2.73500 4293.0
2.74500 4412.0
2.75500 4063.0
2.76500 3684.0
2.77500 4108.0
2.78500 4223.0
2.79500 3679.0
2.80500 3645.0
2.81500 4033.0
2.82500 3773.0
2.83500 3316.0
2.84500 3474.0
2.85500 3695.0
2.86500 3295.0
2.87500 3123.0
2.88500 3471.0
2.89500 3196.0
2.90500 2772.0
2.91500 2968.0
2.92500 3139.0
2.93500 2959.0
2.94500 2754.0
2.95500 2935.0
2.96500 2990.0
2.97500 2715.0
2.98500 2821.0
2.99500 3029.0
3.00500 2710.0
3.01500 2385.0
3.02500 2712.0
3.03500 2892.0
3.04500 2570.0
3.05500 2293.0
3.06500 2536.0
3.07500 2474.0
3.08500 2270.0
3.09500 2367.0
3.10500 2574.0
3.11500 2336.0
3.12500 2145.0
3.13500 2457.0
3.14500 2442.0
3.15500 2085.0
3.16500 2079.0
3.17500 2221.0
3.18500 2228.0
3.19500 1882.0
3.20500 2000.0
3.21500 2187.0
3.22500 1980.0
3.23500 1664.0
3.24500 1978.0
3.25500 2080.0
3.26500 1907.0
3.27500 1841.0
3.28500 2051.0
3.29500 1854.0
3.30500 1696.0
3.31500 1843.0
3.32500 1879.0
3.33500 1641.0
3.34500 1544.0
3.35500 1559.0
3.36500 1584.0
3.37500 1383.0
3.38500 1520.0
3.39500 1584.0
3.40500 1555.0
3.41500 1428.0
3.42500 1567.0
3.43500 1539.0
3.44500 1420.0
3.45500 1224.0
3.46500 1320.0
3.47500 1365.0
3.48500 1344.0
3.49500 1276.0
3.50500 1391.0
3.51500 1329.0
3.52500 1331.0
3.53500 1403.0
3.54500 1439.0
3.55500 1270.0
3.56500 1344.0
3.57500 1257.0
3.58500 1252.0
3.59500 1027.0
3.60500 999.0
3.61500 1183.0
3.62500 1112.0
3.63500 1242.0
3.64500 1435.0
3.65500 1644.0
3.66500 1876.0
3.67500 2690.0
3.68500 3502.0
3.69500 3827.0
3.70500 4429.0
3.71500 6646.0
3.72500 9526.0
3.73500 13118.0
3.74500 26362.0
3.75500 65308.0
3.76500 132396.0
3.77500 196047.0
3.78500 219251.0
3.79500 187717.0
3.80500 130773.0
3.81500 78071.0
3.82500 47123.0
3.83500 29622.0
3.84500 18349.0
3.85500 11797.0
3.86500 8835.0
3.87500 6709.0
3.88500 5242.0
3.89500 4609.0
3.90500 4711.0
3.91500 4192.0
3.92500 3759.0
3.93500 3986.0
3.94500 3855.0
3.95500 3480.0
3.96500 3050.0
3.97500 3071.0
3.98500 2794.0
3.99500 2473.0
4.00500 2389.0
4.01500 2357.0
4.02500 2200.0
4.03500 2058.0
4.04500 2214.0
4.05500 2322.0
4.06500 2071.0
4.07500 1924.0
4.08500 1935.0
4.09500 1864.0
4.10500 1649.0
4.11500 1754.0
4.12500 1829.0
4.13500 1714.0
4.14500 1418.0
4.15500 1674.0
4.16500 1552.0
4.17500 1396.0
4.18500 1409.0
4.19500 1427.0
4.20500 1395.0
4.21500 1216.0
4.22500 1285.0
4.23500 1253.0
4.24500 1247.0
4.25500 1311.0
4.26500 1350.0
4.27500 1230.0
4.28500 1212.0
4.29500 1172.0
4.30500 1208.0
4.31500 1173.0
4.32500 1077.0
4.33500 1146.0
4.34500 1177.0
4.35500 1078.0
4.36500 1091.0
4.37500 1090.0
4.38500 1066.0
4.39500 990.0
4.40500 1014.0
4.41500 1039.0
4.42500 942.0
4.43500 888.0
4.44500 981.0
4.45500 937.0
4.46500 886.0
4.47500 835.0
4.48500 807.0
4.49500 806.0
4.50500 772.0
4.51500 859.0
4.52500 977.0
4.53500 820.0
4.54500 873.0
4.55500 835.0
4.56500 850.0
4.57500 873.0
4.58500 949.0
4.59500 966.0
4.60500 968.0
4.61500 874.0
4.62500 844.0
4.63500 1032.0
4.64500 1085.0
4.65500 884.0
4.66500 784.0
4.67500 734.0
4.68500 781.0
4.69500 701.0
4.70500 941.0
4.71500 946.0
4.72500 682.0
4.73500 708.0
4.74500 777.0
4.75500 741.0
4.76500 718.0
4.77500 733.0
4.78500 688.0
4.79500 644.0
4.80500 690.0
4.81500 700.0
4.82500 702.0
4.83500 696.0
4.84500 746.0
4.85500 699.0
4.86500 687.0
4.87500 575.0
4.88500 670.0
4.89500 695.0
4.90500 642.0
4.91500 603.0
4.92500 608.0
4.93500 594.0
4.94500 629.0
4.95500 575.0
4.96500 714.0
4.97500 623.0
4.98500 669.0
4.99500 678.0
5.00500 666.0
5.01500 614.0
5.02500 619.0
5.03500 593.0
5.04500 657.0
5.05500 704.0
5.06500 733.0
5.07500 791.0
5.08500 783.0
5.09500 728.0
5.10500 694.0
5.11500 816.0
5.12500 815.0
5.13500 845.0
5.14500 854.0
5.15500 880.0
5.16500 709.0
5.17500 667.0
5.18500 762.0
5.19500 665.0
5.20500 629.0
5.21500 863.0
5.22500 829.0
5.23500 833.0
5.24500 857.0
5.25500 895.0
5.26500 853.0
5.27500 902.0
5.28500 917.0
5.29500 1134.0
5.30500 929.0
5.31500 725.0
5.32500 901.0
5.33500 784.0
5.34500 701.0
5.35500 651.0
5.36500 770.0
5.37500 775.0
5.38500 795.0
5.39500 867.0
5.40500 975.0
5.41500 1042.0
5.42500 911.0
5.43500 1043.0
5.44500 1155.0
5.45500 1223.0
5.46500 1264.0
5.47500 1462.0
5.48500 1350.0
5.49500 1434.0
5.50500 2012.0
5.51500 2685.0
5.52500 3343.0
5.53500 3872.0
5.54500 4959.0
5.55500 7397.0
5.56500 9939.0
5.57500 12872.0
5.58500 21781.0
5.59500 41426.0
5.60500 69444.0
5.61500 92467.0
5.62500 97017.0
5.63500 81427.0
5.64500 57562.0
5.65500 36739.0
5.66500 22499.0
5.67500 14806.0
5.68500 9234.0
5.69500 5765.0
5.70500 3837.0
5.71500 2499.0
5.72500 1731.0
5.73500 1566.0
5.74500 1482.0
5.75500 1180.0
5.76500 1179.0
5.77500 982.0
5.78500 938.0
5.79500 858.0
5.80500 682.0
5.81500 552.0
5.82500 554.0
5.83500 528.0
5.84500 563.0
5.85500 487.0
5.86500 503.0
5.87500 457.0
5.88500 477.0
5.89500 428.0
5.90500 386.0
5.91500 320.0
5.92500 371.0
5.93500 300.0
5.94500 347.0
5.95500 316.0
5.96500 280.0
5.97500 283.0
5.98500 297.0
5.99500 302.0
6.00500 300.0
6.01500 292.0
6.02500 292.0
6.03500 257.0
6.04500 237.0
6.05500 264.0
6.06500 326.0
6.07500 275.0
6.08500 282.0
6.09500 244.0
6.10500 233.0
6.11500 300.0
6.12500 208.0
6.13500 273.0
6.14500 286.0
6.15500 261.0
6.16500 223.0
6.17500 223.0
6.18500 205.0
6.19500 226.0
6.20500 224.0
6.21500 265.0
6.22500 282.0
6.23500 362.0
6.24500 222.0
6.25500 274.0
6.26500 199.0
6.27500 232.0
6.28500 204.0
6.29500 233.0
6.30500 214.0
6.31500 213.0
6.32500 195.0
6.33500 210.0
6.34500 194.0
6.35500 225.0
6.36500 178.0
6.37500 146.0
6.38500 148.0
6.39500 174.0
6.40500 201.0
6.41500 210.0
6.42500 214.0
6.43500 215.0
6.44500 215.0
6.45500 215.0
6.46500 197.0
6.47500 242.0
6.48500 227.0
6.49500 253.0
6.50500 273.0
6.51500 286.0
6.52500 303.0
6.53500 268.0
6.54500 216.0
6.55500 255.0
6.56500 247.0
6.57500 269.0
6.58500 216.0
6.59500 240.0
6.60500 260.0
6.61500 220.0
6.62500 180.0
6.63500 117.0
6.64500 111.0
6.65500 124.0
6.66500 200.0
6.67500 245.0
6.68500 256.0
6.69500 240.0
6.70500 180.0
6.71500 251.0
6.72500 272.0
6.73500 225.0
6.74500 239.0
6.75500 240.0
6.76500 233.0
6.77500 257.0
6.78500 317.0
6.79500 241.0
6.80500 235.0
6.81500 271.0
6.82500 245.0
6.83500 249.0
6.84500 252.0
6.85500 176.0
6.86500 143.0
6.87500 154.0
6.88500 157.0
6.89500 133.0
6.90500 175.0
6.91500 153.0
6.92500 128.0
6.93500 149.0
6.94500 151.0
6.95500 139.0
6.96500 120.0
6.97500 163.0
6.98500 184.0
6.99500 190.0
7.00500 179.0
7.01500 160.0
7.02500 150.0
7.03500 242.0
7.04500 226.0
7.05500 237.0
7.06500 225.0
7.07500 241.0
7.08500 175.0
7.09500 226.0
7.10500 238.0
7.11500 214.0
7.12500 226.0
7.13500 189.0
7.14500 147.0
7.15500 138.0
7.16500 142.0
7.17500 145.0
7.18500 130.0
7.19500 133.0
7.20500 135.0
7.21500 119.0
7.22500 135.0
7.23500 179.0
7.24500 236.0
7.25500 262.0
7.26500 230.0
7.27500 220.0
7.28500 217.0
7.29500 244.0
7.30500 280.0
7.31500 243.0
7.32500 235.0
7.33500 263.0
7.34500 314.0
7.35500 379.0
7.36500 490.0
7.37500 567.0
7.38500 752.0
7.39500 906.0
7.40500 1152.0
7.41500 1488.0
7.42500 1780.0
7.43500 3098.0
7.44500 5145.0
7.45500 7625.0
7.46500 9675.0
7.47500 10205.0
7.48500 8913.0
7.49500 7294.0
7.50500 5182.0
7.51500 3735.0
7.52500 2653.0
7.53500 1902.0
7.54500 1394.0
7.55500 979.0
7.56500 793.0
7.57500 592.0
7.58500 487.0
7.59500 389.0
7.60500 378.0
7.61500 337.0
7.62500 401.0
7.63500 301.0
7.64500 371.0
7.65500 302.0
7.66500 264.0
7.67500 331.0
7.68500 270.0
7.69500 215.0
7.70500 242.0
7.71500 238.0
7.72500 218.0
7.73500 227.0
7.74500 228.0
7.75500 232.0
7.76500 258.0
7.77500 221.0
7.78500 244.0
7.79500 203.0
7.80500 194.0
7.81500 139.0
7.82500 127.0
7.83500 139.0
7.84500 140.0
7.85500 136.0
7.86500 137.0
7.87500 108.0
7.88500 130.0
7.89500 166.0
7.90500 128.0
7.91500 183.0
7.92500 160.0
7.93500 158.0
7.94500 161.0
7.95500 135.0
7.96500 184.0
7.97500 191.0
7.98500 226.0
7.99500 243.0
8.00500 209.0
8.01500 160.0
8.02500 157.0
8.03500 157.0
8.04500 148.0
8.05500 175.0
8.06500 187.0
8.07500 186.0
8.08500 168.0
8.09500 172.0
8.10500 132.0
8.11500 176.0
8.12500 213.0
8.13500 189.0
8.14500 208.0
8.15500 225.0
8.16500 231.0
8.17500 282.0
8.18500 310.0
8.19500 307.0
8.20500 230.0
8.21500 332.0
8.22500 271.0
8.23500 281.0
8.24500 257.0
8.25500 174.0
8.26500 135.0
8.27500 214.0
8.28500 260.0
8.29500 343.0
8.30500 560.0
8.31500 339.0
8.32500 267.0
8.33500 240.0
8.34500 274.0
8.35500 320.0
8.36500 278.0
8.37500 215.0
8.38500 178.0
8.39500 250.0
8.40500 241.0
8.41500 219.0
8.42500 217.0
8.43500 177.0
8.44500 178.0
8.45500 206.0
8.46500 190.0
8.47500 153.0
8.48500 176.0
8.49500 174.0
8.50500 240.0
8.51500 176.0
8.52500 197.0
8.53500 163.0
8.54500 113.0
8.55500 141.0
8.56500 174.0
8.57500 125.0
8.58500 105.0
8.59500 131.0
8.60500 150.0
8.61500 139.0
8.62500 158.0
8.63500 118.0
8.64500 126.0
8.65500 152.0
8.66500 141.0
8.67500 181.0
8.68500 169.0
8.69500 138.0
8.70500 207.0
8.71500 135.0
8.72500 143.0
8.73500 225.0
8.74500 176.0
8.75500 208.0
8.76500 148.0
8.77500 158.0
8.78500 236.0
8.79500 218.0
8.80500 224.0
8.81500 228.0
8.82500 238.0
8.83500 251.0
8.84500 207.0
8.85500 238.0
8.86500 214.0
8.87500 266.0
8.88500 283.0
8.89500 365.0
8.90500 347.0
8.91500 313.0
8.92500 341.0
8.93500 242.0
8.94500 297.0
8.95500 282.0
8.96500 264.0
8.97500 221.0
8.98500 188.0
8.99500 217.0
9.00500 163.0
9.01500 185.0
9.02500 180.0
9.03500 137.0
9.04500 121.0
9.05500 129.0
9.06500 264.0
9.07500 279.0
9.08500 213.0
9.09500 222.0
9.10500 184.0
9.11500 193.0
9.12500 223.0
9.13500 191.0
9.14500 158.0
9.15500 138.0
9.16500 154.0
9.17500 184.0
9.18500 150.0
9.19500 147.0
9.20500 248.0
9.21500 192.0
9.22500 218.0
9.23500 204.0
9.24500 221.0
9.25500 247.0
9.26500 283.0
9.27500 396.0
9.28500 440.0
9.29500 638.0
9.30500 790.0
9.31500 1099.0
9.32500 1276.0
9.33500 1261.0
9.34500 1116.0
9.35500 937.0
9.36500 775.0
9.37500 691.0
9.38500 491.0
9.39500 350.0
9.40500 278.0
9.41500 268.0
9.42500 196.0
9.43500 163.0
9.44500 173.0
9.45500 161.0
9.46500 160.0
9.47500 178.0
9.48500 150.0
9.49500 116.0
9.50500 123.0
9.51500 121.0
9.52500 146.0
9.53500 150.0
9.54500 132.0
9.55500 140.0
9.56500 154.0
9.57500 173.0
9.58500 155.0
9.59500 166.0
9.60500 160.0
9.61500 162.0
9.62500 153.0
9.63500 150.0
9.64500 144.0
9.65500 134.0
9.66500 108.0
9.67500 102.0
9.68500 122.0
9.69500 89.0
9.70500 130.0
9.71500 128.0
9.72500 143.0
9.73500 123.0
9.74500 101.0
9.75500 145.0
9.76500 154.0
9.77500 151.0
9.78500 295.0
9.79500 284.0
9.80500 282.0
9.81500 317.0
9.82500 291.0
9.83500 251.0
9.84500 292.0
9.85500 224.0
9.86500 230.0
9.87500 137.0
9.88500 162.0
9.89500 186.0
9.90500 167.0
9.91500 200.0
9.92500 228.0
9.93500 316.0
9.94500 296.0
9.95500 294.0
9.96500 240.0
9.97500 265.0
9.98500 261.0
9.99500 257.0
