0.00500 221952540672.0
0.01500 241991417856.0
0.02500 180083032064.0
0.03500 102203514880.0
0.04500 45307064320.0
0.05500 18462535680.0
0.06500 11937092608.0
0.07500 12380920832.0
0.08500 14162721792.0
0.09500 15660039168.0
0.10500 17629114368.0
0.11500 19542933504.0
0.12500 21458221056.0
0.13500 23845488640.0
0.14500 25486264320.0
0.15500 27580405760.0
0.16500 29977714688.0
0.17500 31877773312.0
0.18500 34426818560.0
0.19500 36517535744.0
0.20500 38304202752.0
0.21500 41374928896.0
0.22500 43330060288.0
0.23500 46209249280.0
0.24500 48334217216.0
0.25500 50178277376.0
0.26500 53264711680.0
0.27500 55178137600.0
0.28500 58001334272.0
0.29500 60316635136.0
0.30500 61740109824.0
0.31500 65515823104.0
0.32500 67714109440.0
0.33500 70576209920.0
0.34500 73490866176.0
0.35500 74549477376.0
0.36500 78264926208.0
0.37500 80522346496.0
0.38500 83297665024.0
0.39500 86526746624.0
0.40500 87728324608.0
0.41500 90416979968.0
0.42500 93421731840.0
0.43500 96084779008.0
0.44500 99384573952.0
0.45500 100467384320.0
0.46500 102932217856.0
0.47500 105996214272.0
0.48500 108089712640.0
0.49500 111780651008.0
0.50500 112259760128.0
0.51500 114092048384.0
0.52500 117194047488.0
0.53500 119293853696.0
0.54500 122514767872.0
0.55500 123177558016.0
0.56500 124362489856.0
0.57500 127475318784.0
0.58500 128245579776.0
0.59500 130691883008.0
0.60500 130553724928.0
0.61500 131138306048.0
0.62500 132994637824.0
0.63500 132328611840.0
0.64500 131263758336.0
0.65500 128434364416.0
0.66500 123454087168.0
0.67500 117228396544.0
0.68500 105121275904.0
0.69500 91143249920.0
0.70500 76993609728.0
0.71500 64290484224.0
0.72500 55749943296.0
0.73500 48393273344.0
0.74500 42722385920.0
0.75500 38394753024.0
0.76500 34395226112.0
0.77500 31527237632.0
0.78500 28621477888.0
0.79500 26200057856.0
0.80500 24237221888.0
0.81500 22079643648.0
0.82500 20750215168.0
0.83500 19331270656.0
0.84500 17962852352.0
0.85500 16934324224.0
0.86500 15813818368.0
0.87500 14752105472.0
0.88500 14006942720.0
0.89500 13072912384.0
0.90500 12462816256.0
0.91500 11685516288.0
0.92500 11140003840.0
0.93500 10643018752.0
0.94500 10008518656.0
0.95500 9576662016.0
0.96500 9122512896.0
0.97500 8767182848.0
0.98500 8395629056.0
0.99500 7975114240.0
1.00500 7668982272.0
1.01500 7280632832.0
1.02500 6981102080.0
1.03500 6724729344.0
1.04500 6410528256.0
1.05500 6202361344.0
1.06500 5948184064.0
1.07500 5737513984.0
1.08500 5511320576.0
1.09500 5280372224.0
1.10500 5105405952.0
1.11500 4939809792.0
1.12500 4761067520.0
1.13500 4617987072.0
1.14500 4432042496.0
1.15500 4306625024.0
1.16500 4220295424.0
1.17500 4026393344.0
1.18500 3912653312.0
1.19500 3832085760.0
1.20500 3685802752.0
1.21500 3546638080.0
1.22500 3460588288.0
1.23500 3338205440.0
1.24500 3201446144.0
1.25500 3158749952.0
1.26500 3061176576.0
1.27500 2944569600.0
1.28500 2904964096.0
1.29500 2817963520.0
1.30500 2692965632.0
1.31500 2680043520.0
1.32500 2614943232.0
1.33500 2487400192.0
1.34500 2475358976.0
1.35500 2433907456.0
1.36500 2326180864.0
1.37500 2303930880.0
1.38500 2277009664.0
1.39500 2174625536.0
1.40500 2166192640.0
1.41500 2148963072.0
1.42500 2055543296.0
1.43500 2022133120.0
1.44500 2021042304.0
1.45500 1941383680.0
1.46500 1873444608.0
1.47500 1904561152.0
1.48500 1835615104.0
1.49500 1747397760.0
1.50500 1790541568.0
1.51500 1757774592.0
1.52500 1661236224.0
1.53500 1684702976.0
1.54500 1694017024.0
1.55500 1598681344.0
1.56500 1575522176.0
1.57500 1617029632.0
1.58500 1537077376.0
1.59500 1504338432.0
1.60500 1538042368.0
1.61500 1521316224.0
1.62500 1444804352.0
1.63500 1510030336.0
1.64500 1516155776.0
1.65500 1443014272.0
1.66500 1468858496.0
1.67500 1524686592.0
1.68500 1464257408.0
1.69500 1470998272.0
1.70500 1564054400.0
1.71500 1556824192.0
1.72500 1536545920.0
1.73500 1645167488.0
1.74500 1693989120.0
1.75500 1635783552.0
1.76500 1720378752.0
1.77500 1877080704.0
1.78500 1858298880.0
1.79500 1937467904.0
1.80500 2154053632.0
1.81500 2264409344.0
1.82500 2324726528.0
1.83500 2615740416.0
1.84500 2963966976.0
1.85500 3226451456.0
1.86500 3860908800.0
1.87500 4791288832.0
1.88500 5806404096.0
1.89500 7861555712.0
1.90500 11532940288.0
1.91500 18081206272.0
1.92500 29659052032.0
1.93500 48187428864.0
1.94500 69971763200.0
1.95500 80323100672.0
1.96500 73755156480.0
1.97500 52399513600.0
1.98500 28754767872.0
1.99500 13189477376.0
2.00500 8327438336.0
2.01500 6512535040.0
2.02500 4279969280.0
2.03500 3003362560.0
2.04500 2566834944.0
2.05500 2050914176.0
2.06500 1557705216.0
2.07500 1360754432.0
2.08500 1202318464.0
2.09500 972530880.0
2.10500 830037696.0
2.11500 785943040.0
2.12500 668468992.0
2.13500 571636864.0
2.14500 542645952.0
2.15500 483573344.0
2.16500 423004288.0
2.17500 394097312.0
2.18500 381678624.0
2.19500 331920000.0
2.20500 295223360.0
2.21500 286286944.0
2.22500 261617392.0
2.23500 222627216.0
2.24500 220319696.0
2.25500 213243280.0
2.26500 192475552.0
2.27500 180532368.0
2.28500 183567104.0
2.29500 173302112.0
2.30500 151807168.0
2.31500 151863120.0
2.32500 153037856.0
2.33500 139556320.0
2.34500 132913440.0
2.35500 136619472.0
2.36500 136353744.0
2.37500 119096256.0
2.38500 120942280.0
2.39500 120746488.0
2.40500 112117744.0
2.41500 106090208.0
2.42500 109222848.0
2.43500 106467808.0
2.44500 94007168.0
2.45500 97293648.0
2.46500 100426288.0
2.47500 89587912.0
2.48500 86357376.0
2.49500 90524904.0
2.50500 86063688.0
2.51500 79672544.0
2.52500 77406976.0
2.53500 78274048.0
2.54500 73323352.0
2.55500 67379728.0
2.56500 71015832.0
2.57500 70218688.0
2.58500 61478060.0
2.59500 61464076.0
2.60500 65240024.0
2.61500 61450088.0
2.62500 56317596.0
2.63500 59492192.0
2.64500 61408136.0
2.65500 53212924.0
2.66500 53800296.0
2.67500 53926160.0
2.68500 51800440.0
2.69500 46598020.0
2.70500 49744644.0
2.71500 51101192.0
2.72500 44807940.0
2.73500 44318464.0
2.74500 47954564.0
2.75500 44038764.0
2.76500 39773340.0
2.77500 42108836.0
2.78500 42738160.0
2.79500 38207020.0
2.80500 37479800.0
2.81500 42038912.0
2.82500 38514688.0
2.83500 35144304.0
2.84500 34682800.0
2.85500 36682656.0
2.86500 32640990.0
2.87500 30822940.0
2.88500 34878592.0
2.89500 34598888.0
2.90500 29438424.0
2.91500 29270604.0
2.92500 31452264.0
2.93500 28655264.0
2.94500 26683380.0
2.95500 27312704.0
2.96500 28221730.0
2.97500 25047136.0
2.98500 24697510.0
2.99500 26823230.0
3.00500 24333900.0
3.01500 22767580.0
3.02500 23089236.0
3.03500 23382920.0
3.04500 21243216.0
3.05500 21341110.0
3.06500 23271040.0
3.07500 21145320.0
3.08500 19397196.0
3.09500 19019600.0
3.10500 21145320.0
3.11500 19047570.0
3.12500 16977790.0
3.13500 19788776.0
3.14500 18809824.0
3.15500 16264555.0
3.16500 15803050.0
3.17500 17830876.0
3.18500 15229665.0
3.19500 14726205.0
3.20500 15257635.0
3.21500 15914930.0
3.22500 13817180.0
3.23500 13831165.0
3.24500 14236730.0
3.25500 13733270.0
3.26500 12083040.0
3.27500 12166950.0
3.28500 12978080.0
3.29500 12013115.0
3.30500 10320930.0
3.31500 10153110.0
3.32500 10292960.0
3.33500 9537770.0
3.34500 9985290.0
3.35500 10125140.0
3.36500 8069345.0
3.37500 7873555.0
3.38500 8153255.0
3.39500 8838520.0
3.40500 6572950.0
3.41500 6391145.0
3.42500 6782725.0
3.43500 7300170.0
3.44500 6195355.0
3.45500 5985580.0
3.46500 6572950.0
3.47500 5901670.0
3.48500 6475055.0
3.49500 7174305.0
3.50500 6754755.0
3.51500 5356255.0
3.52500 6027535.0
3.53500 6754755.0
3.54500 5775805.0
3.55500 5062570.0
3.56500 5985580.0
3.57500 5761820.0
3.58500 5370240.0
3.59500 5146480.0
3.60500 5635955.0
3.61500 5314300.0
3.62500 4838810.0
3.63500 4866780.0
3.64500 5076555.0
3.65500 4922720.0
3.66500 5468135.0
3.67500 5817760.0
3.68500 6475055.0
3.69500 6363175.0
3.70500 6936560.0
3.71500 9314010.0
3.72500 8740625.0
3.73500 7915510.0
3.74500 6642875.0
3.75500 6391145.0
3.76500 7048440.0
3.77500 6628890.0
3.78500 8069345.0
3.79500 8013405.0
3.80500 7733705.0
3.81500 6572950.0
3.82500 6824680.0
3.83500 6069490.0
3.84500 6125430.0
3.85500 5524075.0
3.86500 5831745.0
3.87500 5677910.0
3.88500 5118510.0
3.89500 4083620.0
3.90500 4251440.0
3.91500 4195500.0
3.92500 4111590.0
3.93500 3817905.0
3.94500 4237455.0
3.95500 3594145.0
3.96500 3272490.0
3.97500 3398355.0
3.98500 3230535.0
3.99500 2922865.0
4.00500 2992790.0
4.01500 3076700.0
4.02500 2657150.0
4.03500 2307525.0
4.04500 2922865.0
4.05500 2699105.0
4.06500 2964820.0
4.07500 2810985.0
4.08500 2391435.0
4.09500 2419405.0
4.10500 2391435.0
4.11500 2307525.0
4.12500 2307525.0
4.13500 2503315.0
4.14500 2153690.0
4.15500 2852940.0
4.16500 3062715.0
4.17500 2489330.0
4.18500 2237600.0
4.19500 2349480.0
4.20500 2349480.0
4.21500 1957900.0
4.22500 2209630.0
4.23500 2027825.0
4.24500 1943915.0
4.25500 2209630.0
4.26500 2069780.0
4.27500 2601210.0
4.28500 2629180.0
4.29500 1748125.0
4.30500 2559255.0
4.31500 2741060.0
4.32500 1818050.0
4.33500 2349480.0
4.34500 2181660.0
4.35500 2153690.0
4.36500 2405420.0
4.37500 2153690.0
4.38500 2055795.0
4.39500 1901960.0
4.40500 2153690.0
4.41500 2405420.0
4.42500 2125720.0
4.43500 2083765.0
4.44500 2167675.0
4.45500 1971885.0
4.46500 2125720.0
4.47500 1790080.0
4.48500 2405420.0
4.49500 1566320.0
4.50500 1832035.0
4.51500 1971885.0
4.52500 2167675.0
4.53500 1720155.0
4.54500 1804065.0
4.55500 2251585.0
4.56500 2251585.0
4.57500 2027825.0
4.58500 1832035.0
4.59500 1594290.0
4.60500 1762110.0
4.61500 1860005.0
4.62500 1706170.0
4.63500 2167675.0
4.64500 2055795.0
4.65500 1985870.0
4.66500 1650230.0
4.67500 1943915.0
4.68500 2251585.0
4.69500 1636245.0
4.70500 2055795.0
4.71500 2069780.0
4.72500 1706170.0
4.73500 1566320.0
4.74500 1552335.0
4.75500 1608275.0
4.76500 1678200.0
4.77500 1804065.0
4.78500 1999855.0
4.79500 1887975.0
4.80500 1482410.0
4.81500 1412485.0
4.82500 1650230.0
4.83500 1552335.0
4.84500 1818050.0
4.85500 1804065.0
4.86500 2055795.0
4.87500 2069780.0
4.88500 2111735.0
4.89500 2335495.0
4.90500 2027825.0
4.91500 2153690.0
4.92500 1943915.0
4.93500 1985870.0
4.94500 2027825.0
4.95500 2447375.0
4.96500 2293540.0
4.97500 2363465.0
4.98500 2279555.0
4.99500 2293540.0
5.00500 2111735.0
5.01500 1943915.0
5.02500 2615195.0
5.03500 2293540.0
5.04500 2629180.0
5.05500 1943915.0
5.06500 2377450.0
5.07500 2433390.0
5.08500 2251585.0
5.09500 2769030.0
5.10500 2279555.0
5.11500 2531285.0
5.12500 2181660.0
5.13500 2475345.0
5.14500 2866925.0
5.15500 2475345.0
5.16500 2069780.0
5.17500 2041810.0
5.18500 2279555.0
5.19500 2265570.0
5.20500 2531285.0
5.21500 2055795.0
5.22500 2167675.0
5.23500 2251585.0
5.24500 2419405.0
5.25500 2363465.0
5.26500 2279555.0
5.27500 2573240.0
5.28500 2573240.0
5.29500 2573240.0
5.30500 2181660.0
5.31500 2461360.0
5.32500 2475345.0
5.33500 2167675.0
5.34500 2265570.0
5.35500 2671135.0
5.36500 2727075.0
5.37500 2824970.0
5.38500 3510235.0
5.39500 3146625.0
5.40500 2447375.0
5.41500 2419405.0
5.42500 2741060.0
5.43500 2797000.0
5.44500 2964820.0
5.45500 2894895.0
5.46500 2964820.0
5.47500 3076700.0
5.48500 3244520.0
5.49500 3048730.0
5.50500 3020760.0
5.51500 3216550.0
5.52500 3468280.0
5.53500 3733995.0
5.54500 4265425.0
5.55500 4559110.0
5.56500 3845875.0
5.57500 3957755.0
5.58500 2629180.0
5.59500 2601210.0
5.60500 2545270.0
5.61500 2139705.0
5.62500 2461360.0
5.63500 1943915.0
5.64500 2377450.0
5.65500 2013840.0
5.66500 2559255.0
5.67500 2223615.0
5.68500 2209630.0
5.69500 1776095.0
5.70500 2391435.0
5.71500 1790080.0
5.72500 1580305.0
5.73500 1524365.0
5.74500 1832035.0
5.75500 1860005.0
5.76500 1482410.0
5.77500 1720155.0
5.78500 1734140.0
5.79500 1622260.0
5.80500 1692185.0
5.81500 1440455.0
5.82500 1454440.0
5.83500 1468425.0
5.84500 1188725.0
5.85500 1160755.0
5.86500 1454440.0
5.87500 1454440.0
5.88500 1482410.0
5.89500 1650230.0
5.90500 1636245.0
5.91500 1524365.0
5.92500 1454440.0
5.93500 1454440.0
5.94500 1678200.0
5.95500 1608275.0
5.96500 1804065.0
5.97500 1510380.0
5.98500 1384515.0
5.99500 1300605.0
6.00500 1216695.0
6.01500 1496395.0
6.02500 1342560.0
6.03500 1440455.0
6.04500 1314590.0
6.05500 1370530.0
6.06500 1538350.0
6.07500 1328575.0
6.08500 1804065.0
6.09500 1286620.0
6.10500 1160755.0
6.11500 1636245.0
6.12500 1985870.0
6.13500 1258650.0
6.14500 1608275.0
6.15500 1734140.0
6.16500 1636245.0
6.17500 1608275.0
6.18500 1482410.0
6.19500 1636245.0
6.20500 1524365.0
6.21500 1664215.0
6.22500 1384515.0
6.23500 1496395.0
6.24500 1300605.0
6.25500 1146770.0
6.26500 1258650.0
6.27500 1692185.0
6.28500 1468425.0
6.29500 1552335.0
6.30500 1650230.0
6.31500 1272635.0
6.32500 1286620.0
6.33500 1328575.0
6.34500 1412485.0
6.35500 1412485.0
6.36500 1174740.0
6.37500 1146770.0
6.38500 1258650.0
6.39500 1370530.0
6.40500 1300605.0
6.41500 1496395.0
6.42500 1370530.0
6.43500 1384515.0
6.44500 1118800.0
6.45500 1440455.0
6.46500 1090830.0
6.47500 797145.0
6.48500 1146770.0
6.49500 923010.0
6.50500 1076845.0
6.51500 1160755.0
6.52500 1076845.0
6.53500 1146770.0
6.54500 1076845.0
6.55500 1370530.0
6.56500 1118800.0
6.57500 1076845.0
6.58500 1062860.0
6.59500 1160755.0
6.60500 1188725.0
6.61500 727220.0
6.62500 867070.0
6.63500 895040.0
6.64500 1048875.0
6.65500 1048875.0
6.66500 950980.0
6.67500 1230680.0
6.68500 1020905.0
6.69500 1104815.0
6.70500 895040.0
6.71500 1062860.0
6.72500 1202710.0
6.73500 825115.0
6.74500 964965.0
6.75500 895040.0
6.76500 783160.0
6.77500 769175.0
6.78500 1300605.0
6.79500 853085.0
6.80500 978950.0
6.81500 727220.0
6.82500 839100.0
6.83500 769175.0
6.84500 783160.0
6.85500 978950.0
6.86500 895040.0
6.87500 811130.0
6.88500 950980.0
6.89500 741205.0
6.90500 895040.0
6.91500 936995.0
6.92500 713235.0
6.93500 950980.0
6.94500 699250.0
6.95500 783160.0
6.96500 825115.0
6.97500 867070.0
6.98500 950980.0
6.99500 964965.0
7.00500 909025.0
7.01500 936995.0
7.02500 1146770.0
7.03500 1006920.0
7.04500 1034890.0
7.05500 1048875.0
7.06500 1090830.0
7.07500 1328575.0
7.08500 1020905.0
7.09500 881055.0
7.10500 964965.0
7.11500 727220.0
7.12500 964965.0
7.13500 978950.0
7.14500 1104815.0
7.15500 1398500.0
7.16500 909025.0
7.17500 978950.0
7.18500 1174740.0
7.19500 1202710.0
7.20500 992935.0
7.21500 1258650.0
7.22500 1188725.0
7.23500 741205.0
7.24500 587370.0
7.25500 867070.0
7.26500 727220.0
7.27500 992935.0
7.28500 643310.0
7.29500 964965.0
7.30500 895040.0
7.31500 1020905.0
7.32500 1384515.0
7.33500 1985870.0
7.34500 1692185.0
7.35500 2279555.0
7.36500 3034745.0
7.37500 2908880.0
7.38500 3062715.0
7.39500 2601210.0
7.40500 2894895.0
7.41500 2349480.0
7.42500 2251585.0
7.43500 2265570.0
7.44500 2321510.0
7.45500 1832035.0
7.46500 1622260.0
7.47500 1580305.0
7.48500 1748125.0
7.49500 1398500.0
7.50500 1342560.0
7.51500 1454440.0
7.52500 1216695.0
7.53500 1216695.0
7.54500 1314590.0
7.55500 1370530.0
7.56500 1118800.0
7.57500 1076845.0
7.58500 1188725.0
7.59500 1146770.0
7.60500 978950.0
7.61500 1188725.0
7.62500 1188725.0
7.63500 1342560.0
7.64500 867070.0
7.65500 1132785.0
7.66500 964965.0
7.67500 923010.0
7.68500 1020905.0
7.69500 1104815.0
7.70500 1020905.0
7.71500 867070.0
7.72500 964965.0
7.73500 895040.0
7.74500 881055.0
7.75500 1090830.0
7.76500 1020905.0
7.77500 825115.0
7.78500 755190.0
7.79500 1230680.0
7.80500 629325.0
7.81500 839100.0
7.82500 1034890.0
7.83500 1188725.0
7.84500 992935.0
7.85500 769175.0
7.86500 797145.0
7.87500 685265.0
7.88500 923010.0
7.89500 839100.0
7.90500 1342560.0
7.91500 1230680.0
7.92500 811130.0
7.93500 923010.0
7.94500 853085.0
7.95500 755190.0
7.96500 895040.0
7.97500 950980.0
7.98500 909025.0
7.99500 755190.0
