0.01000 6220276.0
0.02000 5713071.0
0.03000 4465738.0
0.04000 3083276.0
0.05000 1889042.0
0.06000 1207303.0
0.07000 1010415.0
0.08000 1074873.0
0.09000 1184258.0
0.10000 1315937.0
0.11000 1469470.0
0.12000 1581114.0
0.13000 1704997.0
0.14000 1816271.0
0.15000 1942185.0
0.16000 2079640.0
0.17000 2172048.0
0.18000 2292380.0
0.19000 2415092.0
0.20000 2508949.0
0.21000 2661655.0
0.22000 2751777.0
0.23000 2847627.0
0.24000 2963856.0
0.25000 3054841.0
0.26000 3191414.0
0.27000 3270264.0
0.28000 3335754.0
0.29000 3446686.0
0.30000 3524837.0
0.31000 3638124.0
0.32000 3721258.0
0.33000 3784747.0
0.34000 3874884.0
0.35000 3948714.0
0.36000 4055601.0
0.37000 4120584.0
0.38000 4142530.0
0.39000 4195853.0
0.40000 4217538.0
0.41000 4226825.0
0.42000 4148638.0
0.43000 3792587.0
0.44000 3085801.0
0.45000 2135876.0
0.46000 1309789.0
0.47000 775756.0
0.48000 521389.0
0.49000 376295.0
0.50000 287811.0
0.51000 231288.0
0.52000 193084.0
0.53000 167402.0
0.54000 146788.0
0.55000 132918.0
0.56000 123381.0
0.57000 114794.0
0.58000 109936.0
0.59000 105355.0
0.60000 102384.0
0.61000 99505.0
0.62000 98109.0
0.63000 95999.0
0.64000 93961.0
0.65000 92497.0
0.66000 91270.0
0.67000 89860.0
0.68000 88092.0
0.69000 86008.0
0.70000 84973.0
0.71000 82325.0
0.72000 81043.0
0.73000 78467.0
0.74000 76221.0
0.75000 74148.0
0.76000 72035.0
0.77000 70022.0
0.78000 68105.0
0.79000 64805.0
0.80000 62833.0
0.81000 60076.0
0.82000 57217.0
0.83000 55151.0
0.84000 52356.0
0.85000 49623.0
0.86000 47418.0
0.87000 44416.0
0.88000 42484.0
0.89000 39939.0
0.90000 37722.0
0.91000 35792.0
0.92000 33384.0
0.93000 31737.0
0.94000 29692.0
0.95000 27710.0
0.96000 25829.0
0.97000 23830.0
0.98000 22826.0
0.99000 20931.0
1.00000 19635.0
1.01000 18158.0
1.02000 16637.0
1.03000 15608.0
1.04000 14613.0
1.05000 13399.0
1.06000 12318.0
1.07000 11197.0
1.08000 10596.0
1.09000 9992.0
1.10000 9140.0
1.11000 8316.0
1.12000 7762.0
1.13000 7353.0
1.14000 6671.0
1.15000 6245.0
1.16000 5975.0
1.17000 5506.0
1.18000 5189.0
1.19000 4853.0
1.20000 4626.0
1.21000 4308.0
1.22000 4139.0
1.23000 3998.0
1.24000 3896.0
1.25000 3706.0
1.26000 3657.0
1.27000 3486.0
1.28000 3458.0
1.29000 3446.0
1.30000 3460.0
1.31000 3260.0
1.32000 3273.0
1.33000 3380.0
1.34000 3306.0
1.35000 3252.0
1.36000 3351.0
1.37000 3295.0
1.38000 3232.0
1.39000 3327.0
1.40000 3263.0
1.41000 3256.0
1.42000 3375.0
1.43000 3349.0
1.44000 3308.0
1.45000 3212.0
1.46000 3270.0
1.47000 3240.0
1.48000 3214.0
1.49000 3104.0
1.50000 3059.0
1.51000 3041.0
1.52000 3041.0
1.53000 2918.0
1.54000 3004.0
1.55000 2853.0
1.56000 2742.0
1.57000 2731.0
1.58000 2712.0
1.59000 2597.0
1.60000 2483.0
1.61000 2418.0
1.62000 2482.0
1.63000 2223.0
1.64000 2153.0
1.65000 2129.0
1.66000 2107.0
1.67000 2017.0
1.68000 1965.0
1.69000 1889.0
1.70000 1704.0
1.71000 1775.0
1.72000 1636.0
1.73000 1530.0
1.74000 1499.0
1.75000 1431.0
1.76000 1447.0
1.77000 1307.0
1.78000 1233.0
1.79000 1150.0
1.80000 1046.0
1.81000 966.0
1.82000 984.0
1.83000 949.0
1.84000 889.0
1.85000 851.0
1.86000 795.0
1.87000 751.0
1.88000 723.0
1.89000 698.0
1.90000 637.0
1.91000 650.0
1.92000 623.0
1.93000 601.0
1.94000 550.0
1.95000 515.0
1.96000 482.0
1.97000 513.0
1.98000 539.0
1.99000 479.0
2.00000 492.0
2.01000 496.0
2.02000 498.0
2.03000 471.0
2.04000 477.0
2.05000 484.0
2.06000 466.0
2.07000 454.0
2.08000 456.0
2.09000 462.0
2.10000 468.0
2.11000 464.0
2.12000 424.0
2.13000 467.0
2.14000 465.0
2.15000 442.0
2.16000 498.0
2.17000 484.0
2.18000 472.0
2.19000 462.0
2.20000 458.0
2.21000 475.0
2.22000 479.0
2.23000 489.0
2.24000 436.0
2.25000 454.0
2.26000 489.0
2.27000 466.0
2.28000 454.0
2.29000 424.0
2.30000 418.0
2.31000 483.0
2.32000 471.0
2.33000 455.0
2.34000 409.0
2.35000 411.0
2.36000 366.0
2.37000 402.0
2.38000 396.0
2.39000 383.0
2.40000 371.0
2.41000 385.0
2.42000 369.0
2.43000 346.0
2.44000 353.0
2.45000 326.0
2.46000 345.0
2.47000 293.0
2.48000 295.0
2.49000 293.0
2.50000 289.0
2.51000 248.0
2.52000 256.0
2.53000 236.0
2.54000 247.0
2.55000 234.0
2.56000 206.0
2.57000 215.0
2.58000 189.0
2.59000 187.0
2.60000 199.0
2.61000 192.0
2.62000 193.0
2.63000 157.0
2.64000 170.0
2.65000 172.0
2.66000 155.0
2.67000 178.0
2.68000 181.0
2.69000 180.0
2.70000 150.0
2.71000 166.0
2.72000 158.0
2.73000 135.0
2.74000 116.0
2.75000 113.0
2.76000 129.0
2.77000 126.0
2.78000 128.0
2.79000 95.0
2.80000 115.0
2.81000 137.0
2.82000 139.0
2.83000 93.0
2.84000 102.0
2.85000 112.0
2.86000 121.0
2.87000 106.0
2.88000 96.0
2.89000 113.0
2.90000 112.0
2.91000 107.0
2.92000 129.0
2.93000 121.0
2.94000 106.0
2.95000 91.0
2.96000 112.0
2.97000 104.0
2.98000 115.0
2.99000 112.0
3.00000 121.0
3.01000 87.0
3.02000 120.0
3.03000 103.0
3.04000 95.0
3.05000 115.0
3.06000 124.0
3.07000 123.0
3.08000 88.0
3.09000 99.0
3.10000 87.0
3.11000 101.0
3.12000 112.0
3.13000 102.0
3.14000 83.0
3.15000 87.0
3.16000 104.0
3.17000 111.0
3.18000 99.0
3.19000 125.0
3.20000 90.0
3.21000 104.0
3.22000 120.0
3.23000 100.0
3.24000 99.0
3.25000 90.0
3.26000 103.0
3.27000 75.0
3.28000 85.0
3.29000 93.0
3.30000 91.0
3.31000 65.0
3.32000 66.0
3.33000 75.0
3.34000 84.0
3.35000 80.0
3.36000 68.0
3.37000 79.0
3.38000 55.0
3.39000 84.0
3.40000 81.0
3.41000 93.0
3.42000 89.0
3.43000 64.0
3.44000 72.0
3.45000 76.0
3.46000 72.0
3.47000 80.0
3.48000 88.0
3.49000 62.0
3.50000 83.0
3.51000 60.0
3.52000 70.0
3.53000 41.0
3.54000 51.0
3.55000 50.0
3.56000 55.0
3.57000 40.0
3.58000 49.0
3.59000 48.0
3.60000 50.0
3.61000 48.0
3.62000 49.0
3.63000 56.0
3.64000 57.0
3.65000 61.0
3.66000 59.0
3.67000 48.0
3.68000 49.0
3.69000 53.0
3.70000 61.0
3.71000 54.0
3.72000 54.0
3.73000 58.0
3.74000 66.0
3.75000 41.0
3.76000 61.0
3.77000 56.0
3.78000 64.0
3.79000 58.0
3.80000 42.0
3.81000 59.0
3.82000 50.0
3.83000 57.0
3.84000 67.0
3.85000 74.0
3.86000 46.0
3.87000 54.0
3.88000 50.0
3.89000 54.0
3.90000 57.0
3.91000 49.0
3.92000 55.0
3.93000 52.0
3.94000 61.0
3.95000 44.0
3.96000 57.0
