0.00500 32772324.0
0.01500 38079116.0
0.02500 34248632.0
0.03500 27433688.0
0.04500 19498222.0
0.05500 12026031.0
0.06500 7355887.0
0.07500 5913433.0
0.08500 6252403.0
0.09500 6820458.0
0.10500 7527745.0
0.11500 8158882.0
0.12500 8781872.0
0.13500 9506698.0
0.14500 10051008.0
0.15500 10671037.0
0.16500 11264166.0
0.17500 11865649.0
0.18500 12522820.0
0.19500 13139705.0
0.20500 13668209.0
0.21500 14265530.0
0.22500 14733252.0
0.23500 15445314.0
0.24500 16181292.0
0.25500 16625823.0
0.26500 17074196.0
0.27500 17538120.0
0.28500 18033916.0
0.29500 18629934.0
0.30500 19030984.0
0.31500 19570572.0
0.32500 20019486.0
0.33500 20460444.0
0.34500 21020338.0
0.35500 21509656.0
0.36500 22100080.0
0.37500 22447700.0
0.38500 22932376.0
0.39500 23360176.0
0.40500 23702334.0
0.41500 24095000.0
0.42500 24480708.0
0.43500 24806368.0
0.44500 25148124.0
0.45500 25362488.0
0.46500 25742620.0
0.47500 26109812.0
0.48500 26404296.0
0.49500 26868564.0
0.50500 26835404.0
0.51500 26994052.0
0.52500 27385574.0
0.53500 27610908.0
0.54500 28037560.0
0.55500 28153434.0
0.56500 28451856.0
0.57500 28631558.0
0.58500 28867786.0
0.59500 29253912.0
0.60500 29365748.0
0.61500 29419732.0
0.62500 29583026.0
0.63500 29557000.0
0.64500 29554904.0
0.65500 29466488.0
0.66500 29460588.0
0.67500 29251072.0
0.68500 28962628.0
0.69500 28549112.0
0.70500 27854924.0
0.71500 26716464.0
0.72500 24911580.0
0.73500 22354908.0
0.74500 19208316.0
0.75500 16145914.0
0.76500 13447227.0
0.77500 11345532.0
0.78500 9731249.0
0.79500 8487185.0
0.80500 7545390.0
0.81500 6767563.0
0.82500 6103219.0
0.83500 5522758.0
0.84500 5033606.0
0.85500 4633912.0
0.86500 4262384.0
0.87500 3929878.0
0.88500 3633436.0
0.89500 3358362.0
0.90500 3131046.0
0.91500 2904448.0
0.92500 2713324.0
0.93500 2536093.0
0.94500 2367155.0
0.95500 2229237.0
0.96500 2095599.0
0.97500 1970001.0
0.98500 1865355.0
0.99500 1755534.0
1.00500 1667124.0
1.01500 1575859.0
1.02500 1494185.0
1.03500 1431219.0
1.04500 1359169.0
1.05500 1286195.0
1.06500 1239698.0
1.07500 1177267.0
1.08500 1109889.0
1.09500 1085972.0
1.10500 1035131.0
1.11500 966142.0
1.12500 942248.0
1.13500 907117.0
1.14500 842572.0
1.15500 818306.0
1.16500 799352.0
1.17500 751354.0
1.18500 710138.0
1.19500 705387.0
1.20500 671402.0
1.21500 619468.0
1.22500 613016.0
1.23500 605824.0
1.24500 561878.0
1.25500 540965.0
1.26500 542212.0
1.27500 515239.0
1.28500 477588.0
1.29500 475059.0
1.30500 476909.0
1.31500 436472.0
1.32500 414324.0
1.33500 425608.0
1.34500 412579.0
1.35500 374933.0
1.36500 366928.0
1.37500 376353.0
1.38500 355115.0
1.39500 324524.0
1.40500 331474.0
1.41500 336120.0
1.42500 305304.0
1.43500 292065.0
1.44500 302094.0
1.45500 299176.0
1.46500 269417.0
1.47500 259907.0
1.48500 273608.0
1.49500 263831.0
1.50500 238882.0
1.51500 240238.0
1.52500 249857.0
1.53500 237661.0
1.54500 212167.0
1.55500 214918.0
1.56500 223890.0
1.57500 206983.0
1.58500 187872.0
1.59500 194259.0
1.60500 200406.0
1.61500 184879.0
1.62500 170548.0
1.63500 180760.0
1.64500 185800.0
1.65500 168773.0
1.66500 159634.0
1.67500 169572.0
1.68500 171303.0
1.69500 153438.0
1.70500 146031.0
1.71500 157208.0
1.72500 158501.0
1.73500 142017.0
1.74500 138021.0
1.75500 147705.0
1.76500 148460.0
1.77500 131857.0
1.78500 126504.0
1.79500 138600.0
1.80500 138621.0
1.81500 124662.0
1.82500 122774.0
1.83500 134088.0
1.84500 134935.0
1.85500 119695.0
1.86500 116301.0
1.87500 127979.0
1.88500 128878.0
1.89500 115890.0
1.90500 111996.0
1.91500 124456.0
1.92500 127821.0
1.93500 115033.0
1.94500 111050.0
1.95500 122393.0
1.96500 125845.0
1.97500 114470.0
1.98500 110120.0
1.99500 121936.0
2.00500 129438.0
2.01500 115880.0
2.02500 112619.0
2.03500 126086.0
2.04500 134026.0
2.05500 124562.0
2.06500 118323.0
2.07500 133799.0
2.08500 146457.0
2.09500 137912.0
2.10500 131637.0
2.11500 148814.0
2.12500 167091.0
2.13500 160075.0
2.14500 149991.0
2.15500 170002.0
2.16500 197556.0
2.17500 200081.0
2.18500 197119.0
2.19500 232687.0
2.20500 287760.0
2.21500 306322.0
2.22500 326512.0
2.23500 428488.0
2.24500 579590.0
2.25500 726842.0
2.26500 1030153.0
2.27500 1894641.0
2.28500 3608844.0
2.29500 5575772.0
2.30500 7139778.0
2.31500 7371889.0
2.32500 6278424.0
2.33500 4510910.0
2.34500 2791984.0
2.35500 1670586.0
2.36500 1101204.0
2.37500 821100.0
2.38500 606990.0
2.39500 447686.0
2.40500 349146.0
2.41500 283714.0
2.42500 233285.0
2.43500 185414.0
2.44500 153616.0
2.45500 134562.0
2.46500 112086.0
2.47500 93927.0
2.48500 76616.0
2.49500 66447.0
2.50500 58691.0
2.51500 49627.0
2.52500 43547.0
2.53500 38090.0
2.54500 33353.0
2.55500 29776.0
2.56500 26187.0
2.57500 23224.0
2.58500 21065.0
2.59500 18973.0
2.60500 17850.0
2.61500 16012.0
2.62500 14537.0
2.63500 13602.0
2.64500 12353.0
2.65500 11634.0
2.66500 10775.0
2.67500 9747.0
2.68500 9259.0
2.69500 9010.0
2.70500 8284.0
2.71500 7695.0
2.72500 7532.0
2.73500 7399.0
2.74500 6939.0
2.75500 6626.0
2.76500 6538.0
2.77500 6387.0
2.78500 5946.0
2.79500 5417.0
2.80500 5365.0
2.81500 5080.0
2.82500 5224.0
2.83500 5308.0
2.84500 5424.0
2.85500 4801.0
2.86500 4640.0
2.87500 4348.0
2.88500 4015.0
2.89500 3815.0
2.90500 3707.0
2.91500 3814.0
2.92500 3341.0
2.93500 3245.0
2.94500 3765.0
2.95500 3645.0
2.96500 3353.0
2.97500 3101.0
2.98500 3078.0
2.99500 3123.0
3.00500 2750.0
3.01500 2519.0
3.02500 2606.0
3.03500 2754.0
3.04500 2575.0
3.05500 2463.0
3.06500 2425.0
3.07500 2564.0
3.08500 2552.0
3.09500 2311.0
3.10500 2276.0
3.11500 2289.0
3.12500 2456.0
3.13500 2739.0
3.14500 2670.0
3.15500 2465.0
3.16500 2253.0
3.17500 2118.0
3.18500 1846.0
3.19500 2007.0
3.20500 2011.0
3.21500 1883.0
3.22500 1908.0
3.23500 1754.0
3.24500 2042.0
3.25500 1945.0
3.26500 1716.0
3.27500 1555.0
3.28500 1576.0
3.29500 1817.0
3.30500 1795.0
3.31500 1741.0
3.32500 1550.0
3.33500 1716.0
3.34500 1626.0
3.35500 1703.0
3.36500 1711.0
3.37500 1662.0
3.38500 1685.0
3.39500 1575.0
3.40500 1839.0
3.41500 1729.0
3.42500 1539.0
3.43500 1556.0
3.44500 1499.0
3.45500 1565.0
3.46500 1547.0
3.47500 1753.0
3.48500 1433.0
3.49500 1342.0
3.50500 1360.0
3.51500 1340.0
3.52500 1390.0
3.53500 1308.0
3.54500 1489.0
3.55500 1510.0
3.56500 1238.0
3.57500 1221.0
3.58500 1300.0
3.59500 1371.0
3.60500 1438.0
3.61500 1097.0
3.62500 1144.0
3.63500 1254.0
3.64500 1115.0
3.65500 1139.0
3.66500 967.0
3.67500 972.0
3.68500 912.0
3.69500 871.0
3.70500 808.0
3.71500 939.0
3.72500 1034.0
3.73500 1096.0
3.74500 987.0
3.75500 984.0
3.76500 906.0
3.77500 1046.0
3.78500 894.0
3.79500 829.0
3.80500 895.0
3.81500 989.0
3.82500 886.0
3.83500 997.0
3.84500 963.0
3.85500 1054.0
3.86500 1035.0
3.87500 955.0
3.88500 1198.0
3.89500 1287.0
3.90500 1095.0
3.91500 964.0
3.92500 1028.0
3.93500 1075.0
3.94500 1009.0
3.95500 872.0
3.96500 883.0
3.97500 974.0
3.98500 1044.0
3.99500 1106.0
4.00500 884.0
4.01500 1093.0
4.02500 1075.0
4.03500 895.0
4.04500 840.0
4.05500 874.0
4.06500 859.0
4.07500 845.0
4.08500 723.0
4.09500 787.0
4.10500 815.0
4.11500 842.0
4.12500 802.0
4.13500 927.0
4.14500 955.0
4.15500 999.0
4.16500 956.0
4.17500 1061.0
4.18500 1008.0
4.19500 1113.0
4.20500 1082.0
4.21500 1249.0
4.22500 1029.0
4.23500 1299.0
4.24500 1386.0
4.25500 1485.0
4.26500 1300.0
4.27500 1358.0
4.28500 1320.0
4.29500 1419.0
4.30500 1355.0
4.31500 1512.0
4.32500 1951.0
4.33500 2053.0
4.34500 2463.0
4.35500 2906.0
4.36500 3794.0
4.37500 4813.0
4.38500 6138.0
4.39500 9569.0
4.40500 17590.0
4.41500 32416.0
4.42500 49841.0
4.43500 63954.0
4.44500 70138.0
4.45500 64640.0
4.46500 51904.0
4.47500 37718.0
4.48500 26679.0
4.49500 19888.0
4.50500 15787.0
4.51500 12529.0
4.52500 9962.0
4.53500 8097.0
4.54500 6700.0
4.55500 6112.0
4.56500 5005.0
4.57500 4271.0
4.58500 4110.0
4.59500 3550.0
4.60500 3010.0
4.61500 2880.0
4.62500 2568.0
4.63500 2348.0
4.64500 1805.0
4.65500 1758.0
4.66500 1638.0
4.67500 1462.0
4.68500 1538.0
4.69500 1689.0
4.70500 1726.0
4.71500 1451.0
4.72500 1382.0
4.73500 1386.0
4.74500 1252.0
4.75500 1092.0
4.76500 1092.0
4.77500 1101.0
4.78500 1026.0
4.79500 864.0
4.80500 888.0
4.81500 845.0
4.82500 791.0
4.83500 864.0
4.84500 718.0
4.85500 925.0
4.86500 981.0
4.87500 1058.0
4.88500 830.0
4.89500 831.0
4.90500 819.0
4.91500 772.0
4.92500 773.0
4.93500 593.0
4.94500 663.0
4.95500 653.0
4.96500 730.0
4.97500 733.0
4.98500 911.0
4.99500 1002.0
5.00500 982.0
5.01500 874.0
5.02500 653.0
5.03500 681.0
5.04500 587.0
5.05500 791.0
5.06500 674.0
5.07500 741.0
5.08500 675.0
5.09500 766.0
5.10500 699.0
5.11500 680.0
5.12500 655.0
5.13500 697.0
5.14500 831.0
5.15500 1026.0
5.16500 738.0
5.17500 559.0
5.18500 577.0
5.19500 609.0
5.20500 858.0
5.21500 735.0
5.22500 804.0
5.23500 679.0
5.24500 643.0
5.25500 789.0
5.26500 730.0
5.27500 583.0
5.28500 426.0
5.29500 421.0
5.30500 428.0
5.31500 344.0
5.32500 327.0
5.33500 298.0
5.34500 343.0
5.35500 386.0
5.36500 417.0
5.37500 413.0
5.38500 465.0
5.39500 547.0
5.40500 516.0
5.41500 506.0
5.42500 434.0
5.43500 503.0
5.44500 403.0
5.45500 339.0
5.46500 385.0
5.47500 518.0
5.48500 489.0
5.49500 551.0
5.50500 517.0
5.51500 490.0
5.52500 437.0
5.53500 538.0
5.54500 443.0
5.55500 358.0
5.56500 445.0
5.57500 441.0
5.58500 369.0
5.59500 384.0
5.60500 349.0
5.61500 291.0
5.62500 445.0
5.63500 434.0
5.64500 483.0
5.65500 413.0
5.66500 477.0
5.67500 553.0
5.68500 518.0
5.69500 451.0
5.70500 459.0
5.71500 465.0
5.72500 377.0
5.73500 412.0
5.74500 451.0
5.75500 522.0
5.76500 552.0
5.77500 526.0
5.78500 466.0
5.79500 509.0
5.80500 405.0
5.81500 403.0
5.82500 439.0
5.83500 384.0
5.84500 460.0
5.85500 546.0
5.86500 484.0
5.87500 414.0
5.88500 462.0
5.89500 351.0
5.90500 344.0
5.91500 305.0
5.92500 395.0
5.93500 438.0
5.94500 331.0
5.95500 273.0
5.96500 259.0
5.97500 288.0
5.98500 367.0
5.99500 365.0
6.00500 319.0
6.01500 298.0
6.02500 377.0
6.03500 396.0
6.04500 290.0
6.05500 265.0
6.06500 252.0
6.07500 303.0
6.08500 338.0
6.09500 284.0
6.10500 365.0
6.11500 348.0
6.12500 338.0
6.13500 283.0
6.14500 286.0
6.15500 317.0
6.16500 273.0
6.17500 333.0
6.18500 307.0
6.19500 361.0
6.20500 324.0
6.21500 483.0
6.22500 450.0
6.23500 575.0
6.24500 532.0
6.25500 366.0
6.26500 277.0
6.27500 412.0
6.28500 390.0
6.29500 340.0
6.30500 315.0
6.31500 386.0
6.32500 350.0
6.33500 368.0
6.34500 299.0
6.35500 254.0
6.36500 254.0
6.37500 363.0
6.38500 406.0
6.39500 283.0
6.40500 403.0
6.41500 345.0
6.42500 345.0
6.43500 375.0
6.44500 754.0
6.45500 1008.0
6.46500 964.0
6.47500 1131.0
6.48500 992.0
6.49500 693.0
6.50500 789.0
6.51500 824.0
6.52500 675.0
6.53500 618.0
6.54500 479.0
6.55500 382.0
6.56500 449.0
6.57500 747.0
6.58500 681.0
6.59500 524.0
6.60500 501.0
6.61500 522.0
6.62500 490.0
6.63500 458.0
6.64500 474.0
6.65500 563.0
6.66500 542.0
6.67500 579.0
6.68500 561.0
6.69500 376.0
6.70500 320.0
6.71500 424.0
6.72500 359.0
6.73500 330.0
6.74500 316.0
6.75500 255.0
6.76500 233.0
6.77500 279.0
6.78500 417.0
6.79500 359.0
6.80500 444.0
6.81500 333.0
6.82500 256.0
6.83500 241.0
6.84500 323.0
6.85500 319.0
6.86500 341.0
6.87500 352.0
6.88500 317.0
6.89500 380.0
6.90500 324.0
6.91500 270.0
6.92500 306.0
6.93500 349.0
6.94500 382.0
6.95500 263.0
6.96500 295.0
6.97500 273.0
6.98500 322.0
6.99500 393.0
7.00500 400.0
7.01500 356.0
7.02500 317.0
7.03500 239.0
7.04500 267.0
7.05500 279.0
7.06500 229.0
7.07500 292.0
7.08500 305.0
7.09500 247.0
7.10500 290.0
7.11500 298.0
7.12500 267.0
7.13500 233.0
7.14500 252.0
7.15500 289.0
7.16500 239.0
7.17500 360.0
7.18500 244.0
7.19500 200.0
7.20500 210.0
7.21500 158.0
7.22500 221.0
7.23500 154.0
7.24500 215.0
7.25500 262.0
7.26500 228.0
7.27500 270.0
7.28500 232.0
7.29500 212.0
7.30500 203.0
7.31500 231.0
7.32500 236.0
7.33500 238.0
7.34500 192.0
7.35500 209.0
7.36500 146.0
7.37500 153.0
7.38500 141.0
7.39500 163.0
7.40500 198.0
7.41500 275.0
7.42500 271.0
7.43500 309.0
7.44500 248.0
7.45500 243.0
7.46500 271.0
7.47500 198.0
7.48500 170.0
7.49500 187.0
7.50500 151.0
7.51500 208.0
7.52500 195.0
7.53500 228.0
7.54500 279.0
7.55500 242.0
7.56500 235.0
7.57500 314.0
7.58500 347.0
7.59500 239.0
7.60500 198.0
7.61500 191.0
7.62500 190.0
7.63500 200.0
7.64500 184.0
7.65500 187.0
7.66500 201.0
7.67500 161.0
7.68500 155.0
7.69500 146.0
7.70500 188.0
7.71500 191.0
7.72500 166.0
7.73500 157.0
7.74500 163.0
7.75500 204.0
7.76500 255.0
7.77500 179.0
7.78500 190.0
7.79500 161.0
7.80500 174.0
7.81500 207.0
7.82500 190.0
7.83500 175.0
7.84500 158.0
7.85500 168.0
7.86500 156.0
7.87500 171.0
7.88500 160.0
7.89500 149.0
7.90500 200.0
7.91500 206.0
7.92500 195.0
7.93500 181.0
7.94500 167.0
7.95500 152.0
7.96500 198.0
7.97500 129.0
7.98500 173.0
7.99500 129.0
