0.00500 41594884.0
0.01500 45823080.0
0.02500 36124692.0
0.03500 22534666.0
0.04500 12287909.0
0.05500 6620294.0
0.06500 4690179.0
0.07500 4545720.0
0.08500 4991627.0
0.09500 5543285.0
0.10500 6101788.0
0.11500 6688147.0
0.12500 7230698.0
0.13500 7815985.0
0.14500 8377120.0
0.15500 8915974.0
0.16500 9490953.0
0.17500 9996074.0
0.18500 10543037.0
0.19500 11194984.0
0.20500 11701750.0
0.21500 12180010.0
0.22500 12733825.0
0.23500 13244392.0
0.24500 13810597.0
0.25500 14286471.0
0.26500 14722078.0
0.27500 15206799.0
0.28500 15583406.0
0.29500 16100406.0
0.30500 16605520.0
0.31500 16998544.0
0.32500 17373842.0
0.33500 17740990.0
0.34500 18158834.0
0.35500 18550044.0
0.36500 18898668.0
0.37500 19226626.0
0.38500 19628612.0
0.39500 19984434.0
0.40500 20276688.0
0.41500 20669664.0
0.42500 21031912.0
0.43500 21286586.0
0.44500 21402946.0
0.45500 21641558.0
0.46500 21687228.0
0.47500 21898336.0
0.48500 22020216.0
0.49500 21915760.0
0.50500 21940230.0
0.51500 21703984.0
0.52500 21556088.0
0.53500 21219480.0
0.54500 20856928.0
0.55500 20240004.0
0.56500 19361036.0
0.57500 18075300.0
0.58500 16392222.0
0.59500 14444414.0
0.60500 12414078.0
0.61500 10451227.0
0.62500 8639134.0
0.63500 7178501.0
0.64500 6038725.0
0.65500 5102568.0
0.66500 4358600.0
0.67500 3792155.0
0.68500 3295958.0
0.69500 2926988.0
0.70500 2621305.0
0.71500 2339107.0
0.72500 2104371.0
0.73500 1905663.0
0.74500 1709863.0
0.75500 1550286.0
0.76500 1403888.0
0.77500 1268889.0
0.78500 1146174.0
0.79500 1050546.0
0.80500 956287.0
0.81500 870210.0
0.82500 794200.0
0.83500 726416.0
0.84500 656413.0
0.85500 603384.0
0.86500 554144.0
0.87500 507924.0
0.88500 464688.0
0.89500 422451.0
0.90500 389366.0
0.91500 359984.0
0.92500 332892.0
0.93500 306104.0
0.94500 285620.0
0.95500 267703.0
0.96500 247698.0
0.97500 228859.0
0.98500 213025.0
0.99500 200506.0
1.00500 189769.0
1.01500 177415.0
1.02500 165934.0
1.03500 155941.0
1.04500 147660.0
1.05500 138631.0
1.06500 126990.0
1.07500 120018.0
1.08500 114824.0
1.09500 109131.0
1.10500 101798.0
1.11500 95772.0
1.12500 91266.0
1.13500 87227.0
1.14500 83218.0
1.15500 77432.0
1.16500 72857.0
1.17500 69754.0
1.18500 66462.0
1.19500 62722.0
1.20500 59394.0
1.21500 56724.0
1.22500 54094.0
1.23500 51757.0
1.24500 49263.0
1.25500 46702.0
1.26500 44712.0
1.27500 42387.0
1.28500 40206.0
1.29500 38636.0
1.30500 36718.0
1.31500 35125.0
1.32500 34120.0
1.33500 32618.0
1.34500 30755.0
1.35500 29349.0
1.36500 28070.0
1.37500 27043.0
1.38500 25449.0
1.39500 24406.0
1.40500 23301.0
1.41500 22741.0
1.42500 21748.0
1.43500 21001.0
1.44500 20312.0
1.45500 19472.0
1.46500 18456.0
1.47500 18106.0
1.48500 17279.0
1.49500 16251.0
1.50500 16061.0
1.51500 15607.0
1.52500 15063.0
1.53500 14570.0
1.54500 14306.0
1.55500 13796.0
1.56500 13426.0
1.57500 13155.0
1.58500 12573.0
1.59500 12019.0
1.60500 11764.0
1.61500 11463.0
1.62500 11118.0
1.63500 10622.0
1.64500 10454.0
1.65500 9951.0
1.66500 10094.0
1.67500 9777.0
1.68500 9484.0
1.69500 9158.0
1.70500 9251.0
1.71500 9334.0
1.72500 9008.0
1.73500 8571.0
1.74500 8246.0
1.75500 8222.0
1.76500 8157.0
1.77500 7964.0
1.78500 7843.0
1.79500 7613.0
1.80500 7461.0
1.81500 7358.0
1.82500 7415.0
1.83500 7261.0
1.84500 7099.0
1.85500 7004.0
1.86500 6838.0
1.87500 6939.0
1.88500 6700.0
1.89500 6619.0
1.90500 6493.0
1.91500 6629.0
1.92500 6637.0
1.93500 6643.0
1.94500 6408.0
1.95500 6207.0
1.96500 6115.0
1.97500 6247.0
1.98500 6362.0
1.99500 6315.0
2.00500 6179.0
2.01500 6352.0
2.02500 6492.0
2.03500 6690.0
2.04500 7236.0
2.05500 7412.0
2.06500 7797.0
2.07500 8025.0
2.08500 8149.0
2.09500 8849.0
2.10500 9628.0
2.11500 10934.0
2.12500 11890.0
2.13500 13075.0
2.14500 14986.0
2.15500 18517.0
2.16500 25392.0
2.17500 36294.0
2.18500 49637.0
2.19500 65158.0
2.20500 79150.0
2.21500 90675.0
2.22500 98481.0
2.23500 100854.0
2.24500 97542.0
2.25500 90061.0
2.26500 82254.0
2.27500 72109.0
2.28500 61909.0
2.29500 53105.0
2.30500 43945.0
2.31500 38142.0
2.32500 31677.0
2.33500 26593.0
2.34500 23235.0
2.35500 19844.0
2.36500 18270.0
2.37500 15719.0
2.38500 13789.0
2.39500 12796.0
2.40500 11583.0
2.41500 10746.0
2.42500 10263.0
2.43500 9618.0
2.44500 9068.0
2.45500 8784.0
2.46500 8477.0
2.47500 8407.0
2.48500 7968.0
2.49500 7828.0
2.50500 7590.0
2.51500 7452.0
2.52500 7281.0
2.53500 6933.0
2.54500 6844.0
2.55500 6637.0
2.56500 6307.0
2.57500 6404.0
2.58500 6046.0
2.59500 5817.0
2.60500 5717.0
2.61500 5635.0
2.62500 5471.0
2.63500 5345.0
2.64500 5267.0
2.65500 5066.0
2.66500 5009.0
2.67500 4738.0
2.68500 4586.0
2.69500 4516.0
2.70500 4362.0
2.71500 4300.0
2.72500 4108.0
2.73500 4006.0
2.74500 4099.0
2.75500 4013.0
2.76500 3980.0
2.77500 3778.0
2.78500 3699.0
2.79500 3420.0
2.80500 3385.0
2.81500 3321.0
2.82500 3370.0
2.83500 3410.0
2.84500 3217.0
2.85500 3148.0
2.86500 3036.0
2.87500 3054.0
2.88500 2865.0
2.89500 2837.0
2.90500 2807.0
2.91500 2924.0
2.92500 3013.0
2.93500 2761.0
2.94500 2582.0
2.95500 2588.0
2.96500 2629.0
2.97500 2566.0
2.98500 2544.0
2.99500 2487.0
3.00500 2489.0
3.01500 2590.0
3.02500 2377.0
3.03500 2487.0
3.04500 2485.0
3.05500 2557.0
3.06500 2482.0
3.07500 2480.0
3.08500 2367.0
3.09500 2630.0
3.10500 2448.0
3.11500 2311.0
3.12500 2127.0
3.13500 2124.0
3.14500 2106.0
3.15500 2085.0
3.16500 1967.0
3.17500 1924.0
3.18500 1946.0
3.19500 1940.0
3.20500 1867.0
3.21500 1789.0
3.22500 1805.0
3.23500 1859.0
3.24500 1863.0
3.25500 1850.0
3.26500 1706.0
3.27500 1687.0
3.28500 1710.0
3.29500 1645.0
3.30500 1621.0
3.31500 1628.0
3.32500 1588.0
3.33500 1537.0
3.34500 1516.0
3.35500 1488.0
3.36500 1439.0
3.37500 1334.0
3.38500 1434.0
3.39500 1461.0
3.40500 1322.0
3.41500 1382.0
3.42500 1507.0
3.43500 1371.0
3.44500 1304.0
3.45500 1356.0
3.46500 1375.0
3.47500 1360.0
3.48500 1402.0
3.49500 1302.0
3.50500 1254.0
3.51500 1236.0
3.52500 1245.0
3.53500 1184.0
3.54500 1182.0
3.55500 1102.0
3.56500 1158.0
3.57500 1198.0
3.58500 1182.0
3.59500 1127.0
3.60500 1125.0
3.61500 1124.0
3.62500 1051.0
3.63500 1041.0
3.64500 1061.0
3.65500 1081.0
3.66500 1023.0
3.67500 1018.0
3.68500 992.0
3.69500 1026.0
3.70500 1011.0
3.71500 889.0
3.72500 852.0
3.73500 946.0
3.74500 947.0
3.75500 1090.0
3.76500 1030.0
3.77500 863.0
3.78500 945.0
3.79500 919.0
3.80500 838.0
3.81500 851.0
3.82500 743.0
3.83500 752.0
3.84500 784.0
3.85500 773.0
3.86500 746.0
3.87500 771.0
3.88500 729.0
3.89500 764.0
3.90500 707.0
3.91500 669.0
3.92500 710.0
3.93500 735.0
3.94500 663.0
3.95500 639.0
3.96500 609.0
3.97500 599.0
3.98500 608.0
3.99500 600.0
4.00500 646.0
4.01500 685.0
4.02500 598.0
4.03500 536.0
4.04500 567.0
4.05500 586.0
4.06500 580.0
4.07500 606.0
4.08500 602.0
4.09500 568.0
4.10500 598.0
4.11500 552.0
4.12500 566.0
4.13500 590.0
4.14500 553.0
4.15500 611.0
4.16500 595.0
4.17500 601.0
4.18500 629.0
4.19500 616.0
4.20500 672.0
4.21500 749.0
4.22500 875.0
4.23500 1067.0
4.24500 1098.0
4.25500 1280.0
4.26500 1260.0
4.27500 1279.0
4.28500 1287.0
4.29500 1182.0
4.30500 1141.0
4.31500 905.0
4.32500 848.0
4.33500 789.0
4.34500 771.0
4.35500 618.0
4.36500 595.0
4.37500 610.0
4.38500 552.0
4.39500 541.0
4.40500 520.0
4.41500 549.0
4.42500 501.0
4.43500 548.0
4.44500 507.0
4.45500 518.0
4.46500 476.0
4.47500 508.0
4.48500 527.0
4.49500 510.0
4.50500 507.0
4.51500 669.0
4.52500 542.0
4.53500 623.0
4.54500 655.0
4.55500 771.0
4.56500 746.0
4.57500 650.0
4.58500 616.0
4.59500 600.0
4.60500 567.0
4.61500 541.0
4.62500 548.0
4.63500 532.0
4.64500 509.0
4.65500 440.0
4.66500 321.0
4.67500 386.0
4.68500 512.0
4.69500 330.0
4.70500 356.0
4.71500 353.0
4.72500 363.0
4.73500 335.0
4.74500 345.0
4.75500 332.0
4.76500 303.0
4.77500 277.0
4.78500 316.0
4.79500 265.0
4.80500 298.0
4.81500 305.0
4.82500 294.0
4.83500 262.0
4.84500 226.0
4.85500 231.0
4.86500 257.0
4.87500 318.0
4.88500 265.0
4.89500 331.0
4.90500 294.0
4.91500 247.0
4.92500 278.0
4.93500 268.0
4.94500 279.0
4.95500 340.0
4.96500 274.0
4.97500 281.0
4.98500 227.0
4.99500 229.0
5.00500 245.0
5.01500 206.0
5.02500 227.0
5.03500 238.0
5.04500 332.0
5.05500 276.0
5.06500 249.0
5.07500 257.0
5.08500 253.0
5.09500 232.0
5.10500 289.0
5.11500 284.0
5.12500 251.0
5.13500 248.0
5.14500 235.0
5.15500 266.0
5.16500 254.0
5.17500 258.0
5.18500 246.0
5.19500 268.0
5.20500 278.0
5.21500 277.0
5.22500 239.0
5.23500 268.0
5.24500 303.0
5.25500 267.0
5.26500 277.0
5.27500 314.0
5.28500 374.0
5.29500 323.0
5.30500 287.0
5.31500 264.0
5.32500 236.0
5.33500 210.0
5.34500 196.0
5.35500 175.0
5.36500 173.0
5.37500 220.0
5.38500 209.0
5.39500 200.0
5.40500 213.0
5.41500 197.0
5.42500 245.0
5.43500 214.0
5.44500 229.0
5.45500 194.0
5.46500 181.0
5.47500 168.0
5.48500 154.0
5.49500 165.0
5.50500 183.0
5.51500 118.0
5.52500 173.0
5.53500 168.0
5.54500 145.0
5.55500 134.0
5.56500 170.0
5.57500 155.0
5.58500 152.0
5.59500 134.0
5.60500 166.0
5.61500 155.0
5.62500 145.0
5.63500 152.0
5.64500 150.0
5.65500 207.0
5.66500 182.0
5.67500 187.0
5.68500 160.0
5.69500 203.0
5.70500 173.0
5.71500 153.0
5.72500 128.0
5.73500 169.0
5.74500 179.0
5.75500 193.0
5.76500 206.0
5.77500 188.0
5.78500 187.0
5.79500 179.0
5.80500 149.0
5.81500 183.0
5.82500 184.0
5.83500 156.0
5.84500 151.0
5.85500 179.0
5.86500 174.0
5.87500 172.0
5.88500 165.0
5.89500 140.0
5.90500 172.0
5.91500 191.0
5.92500 219.0
5.93500 273.0
5.94500 219.0
5.95500 186.0
5.96500 165.0
5.97500 178.0
5.98500 199.0
5.99500 229.0
