0.00500 377832701952.0
0.01500 436629798912.0
0.02500 345757548544.0
0.03500 215146020864.0
0.04500 112855310336.0
0.05500 64161349632.0
0.06500 55734534144.0
0.07500 61225279488.0
0.08500 69221990400.0
0.09500 76670017536.0
0.10500 85011308544.0
0.11500 92990095360.0
0.12500 100497006592.0
0.13500 108569026560.0
0.14500 115269083136.0
0.15500 122763296768.0
0.16500 130622529536.0
0.17500 136866996224.0
0.18500 144488677376.0
0.19500 150015049728.0
0.20500 157184655360.0
0.21500 164835049472.0
0.22500 170080534528.0
0.23500 177122263040.0
0.24500 183050485760.0
0.25500 188352495616.0
0.26500 196540170240.0
0.27500 200604090368.0
0.28500 207816196096.0
0.29500 213635563520.0
0.30500 218219462656.0
0.31500 225860403200.0
0.32500 230554796032.0
0.33500 235158257664.0
0.34500 240123789312.0
0.35500 244126842880.0
0.36500 249954697216.0
0.37500 255415648256.0
0.38500 260519313408.0
0.39500 264721219584.0
0.40500 268650119168.0
0.41500 271671918592.0
0.42500 275406127104.0
0.43500 281151045632.0
0.44500 285320445952.0
0.45500 286863458304.0
0.46500 290404204544.0
0.47500 294573309952.0
0.48500 298584932352.0
0.49500 304143466496.0
0.50500 305256071168.0
0.51500 307018334208.0
0.52500 309785624576.0
0.53500 311506993152.0
0.54500 314327203840.0
0.55500 315686912000.0
0.56500 316793389056.0
0.57500 318276534272.0
0.58500 318793023488.0
0.59500 318775459840.0
0.60500 317548232704.0
0.61500 314224705536.0
0.62500 312936103936.0
0.63500 311788568576.0
0.64500 306534612992.0
0.65500 295280771072.0
0.66500 280066818048.0
0.67500 259685875712.0
0.68500 229621383168.0
0.69500 196710924288.0
0.70500 164278616064.0
0.71500 137252233216.0
0.72500 118678585344.0
0.73500 102278832128.0
0.74500 89786400768.0
0.75500 79573811200.0
0.76500 70475726848.0
0.77500 63702695936.0
0.78500 56919175168.0
0.79500 51823403008.0
0.80500 47540428800.0
0.81500 43611144192.0
0.82500 40334503936.0
0.83500 37475016704.0
0.84500 34604122112.0
0.85500 32313810944.0
0.86500 30011615232.0
0.87500 28021268480.0
0.88500 26302623744.0
0.89500 24643108864.0
0.90500 23024078848.0
0.91500 21568772096.0
0.92500 20379766784.0
0.93500 19091329024.0
0.94500 18120574976.0
0.95500 17194795008.0
0.96500 16297070592.0
0.97500 15575444480.0
0.98500 14676362240.0
0.99500 14053666816.0
1.00500 13311076352.0
1.01500 12612875264.0
1.02500 12046525440.0
1.03500 11344982016.0
1.04500 10838556672.0
1.05500 10426194944.0
1.06500 9842083840.0
1.07500 9445202944.0
1.08500 9097591808.0
1.09500 8615249920.0
1.10500 8337353728.0
1.11500 7950500352.0
1.12500 7576303616.0
1.13500 7375115776.0
1.14500 7036091392.0
1.15500 6763411968.0
1.16500 6578628096.0
1.17500 6259126784.0
1.18500 6001214976.0
1.19500 5861826560.0
1.20500 5577260032.0
1.21500 5342130176.0
1.22500 5224670208.0
1.23500 5027328000.0
1.24500 4810882048.0
1.25500 4748284928.0
1.26500 4532216832.0
1.27500 4344593920.0
1.28500 4291940608.0
1.29500 4123547136.0
1.30500 3905381120.0
1.31500 3870810368.0
1.32500 3737281536.0
1.33500 3557839872.0
1.34500 3486712320.0
1.35500 3391152640.0
1.36500 3217263360.0
1.37500 3165294848.0
1.38500 3109928448.0
1.39500 2998859520.0
1.40500 2942429952.0
1.41500 2935227648.0
1.42500 2774260480.0
1.43500 2697147136.0
1.44500 2703552256.0
1.45500 2592916992.0
1.46500 2462632704.0
1.47500 2480281600.0
1.48500 2419936512.0
1.49500 2288407552.0
1.50500 2300462592.0
1.51500 2285065216.0
1.52500 2156431104.0
1.53500 2146893312.0
1.54500 2164276736.0
1.55500 2073807616.0
1.56500 2022902272.0
1.57500 2049949312.0
1.58500 1973409408.0
1.59500 1909078400.0
1.60500 1938866432.0
1.61500 1932796928.0
1.62500 1857277952.0
1.63500 1867053440.0
1.64500 1926713472.0
1.65500 1837559040.0
1.66500 1799589760.0
1.67500 1875360512.0
1.68500 1847208704.0
1.69500 1806036864.0
1.70500 1855250048.0
1.71500 1878549120.0
1.72500 1816329856.0
1.73500 1861039872.0
1.74500 1958109824.0
1.75500 1953746432.0
1.76500 1998750208.0
1.77500 2143411072.0
1.78500 2213783552.0
1.79500 2210860800.0
1.80500 2397434624.0
1.81500 2621740032.0
1.82500 2667848448.0
1.83500 2920725248.0
1.84500 3346624512.0
1.85500 3670265344.0
1.86500 4197653760.0
1.87500 5139865088.0
1.88500 6078188544.0
1.89500 7277877760.0
1.90500 9550133248.0
1.91500 13335200768.0
1.92500 19053471744.0
1.93500 30145044480.0
1.94500 49902743552.0
1.95500 69690318848.0
1.96500 80852140032.0
1.97500 77097181184.0
1.98500 60310257664.0
1.99500 39593787392.0
2.00500 26892945408.0
2.01500 20880961536.0
2.02500 16778909696.0
2.03500 13496210432.0
2.04500 11382209536.0
2.05500 9912834048.0
2.06500 8474224640.0
2.07500 7333943808.0
2.08500 6583858176.0
2.09500 5816766976.0
2.10500 5163136000.0
2.11500 4644572160.0
2.12500 4228966144.0
2.13500 3768719872.0
2.14500 3407221504.0
2.15500 3161169408.0
2.16500 2833682688.0
2.17500 2582204416.0
2.18500 2419614720.0
2.19500 2244480512.0
2.20500 2061878528.0
2.21500 1906547072.0
2.22500 1789226880.0
2.23500 1682912896.0
2.24500 1541846272.0
2.25500 1482354048.0
2.26500 1394374400.0
2.27500 1284396416.0
2.28500 1221058304.0
2.29500 1160265472.0
2.30500 1095249280.0
2.31500 1034610304.0
2.32500 1010304384.0
2.33500 955287360.0
2.34500 886718912.0
2.35500 840009024.0
2.36500 813017984.0
2.37500 755469696.0
2.38500 717822080.0
2.39500 680817792.0
2.40500 655644800.0
2.41500 616808448.0
2.42500 587439936.0
2.43500 566462400.0
2.44500 546617728.0
2.45500 508830240.0
2.46500 511892960.0
2.47500 495222848.0
2.48500 469420512.0
2.49500 447967520.0
2.50500 438485696.0
2.51500 429745056.0
2.52500 403355360.0
2.53500 391607968.0
2.54500 385804192.0
2.55500 367497824.0
2.56500 351974464.0
2.57500 342380768.0
2.58500 329612480.0
2.59500 314732416.0
2.60500 300355840.0
2.61500 300104128.0
2.62500 286258976.0
2.63500 273700448.0
2.64500 272707488.0
2.65500 256610768.0
2.66500 255296176.0
2.67500 240905616.0
2.68500 242877488.0
2.69500 234808144.0
2.70500 226487072.0
2.71500 226682864.0
2.72500 219424656.0
2.73500 207775152.0
2.74500 206684320.0
2.75500 197216464.0
2.76500 193874048.0
2.77500 184532080.0
2.78500 177497616.0
2.79500 178280784.0
2.80500 168155648.0
2.81500 168756992.0
2.82500 168099696.0
2.83500 161023296.0
2.84500 154324480.0
2.85500 149933184.0
2.86500 149667472.0
2.87500 145541888.0
2.88500 140619168.0
2.89500 139276608.0
2.90500 136129984.0
2.91500 131472984.0
2.92500 126704096.0
2.93500 125641240.0
2.94500 122410704.0
2.95500 120396864.0
2.96500 115879712.0
2.97500 115949632.0
2.98500 109306760.0
2.99500 105307048.0
3.00500 106132168.0
3.01500 103684792.0
3.02500 101684936.0
3.03500 99167632.0
3.04500 99489288.0
3.05500 95671384.0
3.06500 91503856.0
3.07500 92007312.0
3.08500 90650768.0
3.09500 85000832.0
3.10500 84567296.0
3.11500 86665048.0
3.12500 79602624.0
3.13500 79057208.0
3.14500 81574504.0
3.15500 80231944.0
3.16500 75588928.0
3.17500 72777936.0
3.18500 72917792.0
3.19500 70903952.0
3.20500 69323648.0
3.21500 69057928.0
3.22500 68092968.0
3.23500 64596716.0
3.24500 64191152.0
3.25500 65058220.0
3.26500 62065432.0
3.27500 58639104.0
3.28500 60708884.0
3.29500 62149340.0
3.30500 59380312.0
3.31500 57268576.0
3.32500 57128724.0
3.33500 57380456.0
3.34500 56093836.0
3.35500 57366472.0
3.36500 53170968.0
3.37500 53562552.0
3.38500 51604648.0
3.39500 51618636.0
3.40500 51632620.0
3.41500 50332016.0
3.42500 46528096.0
3.43500 50471864.0
3.44500 50248104.0
3.45500 47157420.0
3.46500 46709900.0
3.47500 46667944.0
3.48500 46905688.0
3.49500 43619216.0
3.50500 45031700.0
3.51500 45619072.0
3.52500 45045684.0
3.53500 42570340.0
3.54500 44528240.0
3.55500 44150644.0
3.56500 42598312.0
3.57500 43591244.0
3.58500 45688996.0
3.59500 45213504.0
3.60500 45339368.0
3.61500 48010504.0
3.62500 50387956.0
3.63500 47786744.0
3.64500 51842396.0
3.65500 55268720.0
3.66500 56932936.0
3.67500 59897756.0
3.68500 68988008.0
3.69500 84567296.0
3.70500 102006592.0
3.71500 134745472.0
3.72500 189133136.0
3.73500 240863648.0
3.74500 264847936.0
3.75500 242276144.0
3.76500 194405488.0
3.77500 144716784.0
3.78500 107880288.0
3.79500 87797832.0
3.80500 74148472.0
3.81500 65337920.0
3.82500 56345564.0
3.83500 48947500.0
3.84500 42933952.0
3.85500 40290784.0
3.86500 35787616.0
3.87500 32640990.0
3.88500 30389404.0
3.89500 29004890.0
3.90500 28067896.0
3.91500 25816310.0
3.92500 24180064.0
3.93500 24809390.0
3.94500 23438860.0
3.95500 21425020.0
3.96500 20502010.0
3.97500 19858700.0
3.98500 19928624.0
3.99500 18488170.0
4.00500 17565160.0
4.01500 16921850.0
4.02500 16362450.0
4.03500 16991776.0
4.04500 15621245.0
4.05500 15131770.0
4.06500 15103800.0
4.07500 13901090.0
4.08500 14810115.0
4.09500 14026955.0
4.10500 14138835.0
4.11500 13131915.0
4.12500 13593420.0
4.13500 13341690.0
4.14500 12894170.0
4.15500 13215825.0
4.16500 12362740.0
4.17500 11439730.0
4.18500 12866200.0
4.19500 11635520.0
4.20500 11481685.0
4.21500 12866200.0
4.22500 11090105.0
4.23500 11215970.0
4.24500 11397775.0
4.25500 10474765.0
4.26500 10404840.0
4.27500 11355820.0
4.28500 9579725.0
4.29500 9635665.0
4.30500 9593710.0
4.31500 9817470.0
4.32500 9901380.0
4.33500 9565740.0
4.34500 9845440.0
4.35500 9677620.0
4.36500 8614760.0
4.37500 8922430.0
4.38500 9300025.0
4.39500 8544835.0
4.40500 8516865.0
4.41500 8852505.0
4.42500 8656715.0
4.43500 7901525.0
4.44500 8936415.0
4.45500 8642730.0
4.46500 9146190.0
4.47500 10404840.0
4.48500 10446795.0
4.49500 10544690.0
4.50500 10488750.0
4.51500 9621680.0
4.52500 7971450.0
4.53500 8544835.0
4.54500 11076120.0
4.55500 11355820.0
4.56500 9901380.0
4.57500 8293105.0
4.58500 7873555.0
4.59500 8139270.0
4.60500 7370095.0
4.61500 6586935.0
4.62500 6027535.0
4.63500 6405130.0
4.64500 6167385.0
4.65500 6880620.0
4.66500 7020470.0
4.67500 6642875.0
4.68500 7062425.0
4.69500 6810695.0
4.70500 6768740.0
4.71500 6978515.0
4.72500 6600920.0
4.73500 6796710.0
4.74500 6405130.0
4.75500 5747835.0
4.76500 6167385.0
4.77500 5230390.0
4.78500 5635955.0
4.79500 4936705.0
4.80500 5020615.0
4.81500 4824825.0
4.82500 5482120.0
4.83500 5649940.0
4.84500 5062570.0
4.85500 5663925.0
4.86500 5649940.0
4.87500 5649940.0
4.88500 5915655.0
4.89500 5859715.0
4.90500 4684975.0
4.91500 5062570.0
4.92500 4013695.0
4.93500 4209485.0
4.94500 4251440.0
4.95500 4782870.0
4.96500 4615050.0
4.97500 4097605.0
4.98500 4698960.0
4.99500 4475200.0
5.00500 4433245.0
5.01500 4726930.0
5.02500 3482265.0
5.03500 3454295.0
5.04500 3775950.0
5.05500 3873845.0
5.06500 3412340.0
5.07500 2894895.0
5.08500 3062715.0
5.09500 3286475.0
5.10500 3398355.0
5.11500 3132640.0
5.12500 2838955.0
5.13500 2866925.0
5.14500 3090685.0
5.15500 4209485.0
5.16500 3943770.0
5.17500 3901815.0
5.18500 3664070.0
5.19500 3706025.0
5.20500 2936850.0
5.21500 3034745.0
5.22500 2615195.0
5.23500 2587225.0
5.24500 2643165.0
5.25500 2517300.0
5.26500 2335495.0
5.27500 1915945.0
5.28500 2265570.0
5.29500 2013840.0
5.30500 2181660.0
5.31500 1929930.0
5.32500 1943915.0
5.33500 2181660.0
5.34500 2531285.0
5.35500 2363465.0
5.36500 3412340.0
5.37500 2573240.0
5.38500 1985870.0
5.39500 1971885.0
5.40500 1818050.0
5.41500 1999855.0
5.42500 2251585.0
5.43500 2125720.0
5.44500 2783015.0
5.45500 2908880.0
5.46500 4083620.0
5.47500 4097605.0
5.48500 5272345.0
5.49500 7328140.0
5.50500 9747545.0
5.51500 12726350.0
5.52500 17830876.0
5.53500 28445490.0
5.54500 43087784.0
5.55500 54121952.0
5.56500 58806924.0
5.57500 57380456.0
5.58500 47828700.0
5.59500 37899352.0
5.60500 30473316.0
5.61500 26641424.0
5.62500 21341110.0
5.63500 18040650.0
5.64500 16082750.0
5.65500 16418390.0
5.66500 14796130.0
5.67500 12460635.0
5.68500 11803340.0
5.69500 10460780.0
5.70500 9621680.0
5.71500 9300025.0
5.72500 8964385.0
5.73500 8684685.0
5.74500 7160320.0
5.75500 7412050.0
5.76500 6824680.0
5.77500 6992500.0
5.78500 6223325.0
5.79500 5999565.0
5.80500 5845730.0
5.81500 5174450.0
5.82500 4698960.0
5.83500 4992645.0
5.84500 5607985.0
5.85500 4936705.0
5.86500 4866780.0
5.87500 4643020.0
5.88500 4768885.0
5.89500 5076555.0
5.90500 4405275.0
5.91500 4111590.0
5.92500 3216550.0
5.93500 3328430.0
5.94500 3538205.0
5.95500 3006775.0
5.96500 3314445.0
5.97500 3957755.0
5.98500 3146625.0
5.99500 2866925.0
6.00500 2936850.0
6.01500 3636100.0
6.02500 4279410.0
6.03500 5747835.0
6.04500 4992645.0
6.05500 4908735.0
6.06500 4643020.0
6.07500 4055650.0
6.08500 3957755.0
6.09500 4489185.0
6.10500 3957755.0
6.11500 3538205.0
6.12500 3258505.0
6.13500 2922865.0
6.14500 2936850.0
6.15500 2880910.0
6.16500 2922865.0
6.17500 2852940.0
6.18500 2587225.0
6.19500 2908880.0
6.20500 3160610.0
6.21500 2475345.0
6.22500 2922865.0
6.23500 3104670.0
6.24500 2447375.0
6.25500 2433390.0
6.26500 3146625.0
6.27500 2936850.0
6.28500 2517300.0
6.29500 2461360.0
6.30500 2587225.0
6.31500 2713090.0
6.32500 2559255.0
6.33500 2349480.0
6.34500 2433390.0
6.35500 2587225.0
6.36500 2377450.0
6.37500 2783015.0
6.38500 3789935.0
6.39500 4377305.0
6.40500 3496250.0
6.41500 3859860.0
6.42500 4866780.0
6.43500 5090540.0
6.44500 5663925.0
6.45500 4475200.0
6.46500 3901815.0
6.47500 3594145.0
6.48500 3761965.0
6.49500 4391290.0
6.50500 3761965.0
6.51500 3608130.0
6.52500 3160610.0
6.53500 2922865.0
6.54500 2545270.0
6.55500 2908880.0
6.56500 3384370.0
6.57500 2922865.0
6.58500 3258505.0
6.59500 2741060.0
6.60500 3733995.0
6.61500 4335350.0
6.62500 4601065.0
6.63500 4209485.0
6.64500 2950835.0
6.65500 2810985.0
6.66500 3216550.0
6.67500 3300460.0
6.68500 3398355.0
6.69500 3803920.0
6.70500 3440310.0
6.71500 3146625.0
6.72500 2894895.0
6.73500 2349480.0
6.74500 2293540.0
6.75500 2657150.0
6.76500 2838955.0
6.77500 3370385.0
6.78500 2559255.0
6.79500 3720010.0
6.80500 3370385.0
6.81500 3552190.0
6.82500 2615195.0
6.83500 3104670.0
6.84500 3538205.0
6.85500 3622115.0
6.86500 3216550.0
6.87500 4321365.0
6.88500 3845875.0
6.89500 3636100.0
6.90500 3943770.0
6.91500 2433390.0
6.92500 2307525.0
6.93500 2475345.0
6.94500 2783015.0
6.95500 2111735.0
6.96500 3356400.0
6.97500 2964820.0
6.98500 2615195.0
6.99500 1762110.0
7.00500 2153690.0
7.01500 2447375.0
7.02500 2293540.0
7.03500 2405420.0
7.04500 2629180.0
7.05500 2405420.0
7.06500 2321510.0
7.07500 1901960.0
7.08500 1873990.0
7.09500 2866925.0
7.10500 1720155.0
7.11500 2153690.0
7.12500 2139705.0
7.13500 2125720.0
7.14500 2573240.0
7.15500 1873990.0
7.16500 2489330.0
7.17500 3342415.0
7.18500 3034745.0
7.19500 4293395.0
7.20500 3887830.0
7.21500 3426325.0
7.22500 4153545.0
7.23500 5020615.0
7.24500 3915800.0
7.25500 3342415.0
7.26500 3426325.0
7.27500 3048730.0
7.28500 2251585.0
7.29500 2489330.0
7.30500 2363465.0
7.31500 2671135.0
7.32500 2741060.0
7.33500 3733995.0
7.34500 3747980.0
7.35500 4209485.0
7.36500 3803920.0
7.37500 6139415.0
7.38500 6489040.0
7.39500 6069490.0
7.40500 7034455.0
7.41500 6544980.0
7.42500 5691895.0
7.43500 5356255.0
7.44500 4629035.0
7.45500 4265425.0
7.46500 3985725.0
7.47500 3720010.0
7.48500 3524220.0
7.49500 3915800.0
7.50500 3664070.0
7.51500 3580160.0
7.52500 4195500.0
7.53500 3160610.0
7.54500 3496250.0
7.55500 3678055.0
7.56500 3901815.0
7.57500 3230535.0
7.58500 3650085.0
7.59500 3454295.0
7.60500 3118655.0
7.61500 3090685.0
7.62500 2419405.0
7.63500 2545270.0
7.64500 2377450.0
7.65500 3202565.0
7.66500 3286475.0
7.67500 3496250.0
7.68500 2894895.0
7.69500 2195645.0
7.70500 2657150.0
7.71500 2643165.0
7.72500 1985870.0
7.73500 2279555.0
7.74500 2069780.0
7.75500 1971885.0
7.76500 2111735.0
7.77500 2293540.0
7.78500 2209630.0
7.79500 2601210.0
7.80500 2307525.0
7.81500 2601210.0
7.82500 2545270.0
7.83500 2069780.0
7.84500 2629180.0
7.85500 2727075.0
7.86500 2097750.0
7.87500 2335495.0
7.88500 2866925.0
7.89500 2713090.0
7.90500 2755045.0
7.91500 3622115.0
7.92500 3454295.0
7.93500 2741060.0
7.94500 1790080.0
7.95500 1971885.0
7.96500 2237600.0
7.97500 2279555.0
7.98500 2517300.0
7.99500 2363465.0
8.00500 2237600.0
8.01500 2083765.0
8.02500 1650230.0
8.03500 1650230.0
8.04500 1999855.0
8.05500 2223615.0
8.06500 2013840.0
8.07500 2139705.0
8.08500 2573240.0
8.09500 3524220.0
8.10500 2978805.0
8.11500 3524220.0
8.12500 2964820.0
8.13500 2852940.0
8.14500 3006775.0
8.15500 2293540.0
8.16500 2349480.0
8.17500 2209630.0
8.18500 2699105.0
8.19500 2894895.0
8.20500 3146625.0
8.21500 3146625.0
8.22500 3328430.0
8.23500 2503315.0
8.24500 4027680.0
8.25500 3831890.0
8.26500 2629180.0
8.27500 2153690.0
8.28500 2671135.0
8.29500 3300460.0
8.30500 2587225.0
8.31500 2755045.0
8.32500 2978805.0
8.33500 2531285.0
8.34500 3188580.0
8.35500 3286475.0
8.36500 2321510.0
8.37500 1943915.0
8.38500 2349480.0
8.39500 2139705.0
8.40500 2433390.0
8.41500 3202565.0
8.42500 2405420.0
8.43500 2321510.0
8.44500 2922865.0
8.45500 2083765.0
8.46500 2699105.0
8.47500 2055795.0
8.48500 2181660.0
8.49500 2447375.0
8.50500 2587225.0
8.51500 2125720.0
8.52500 2363465.0
8.53500 2027825.0
8.54500 2279555.0
8.55500 1915945.0
8.56500 2517300.0
8.57500 2153690.0
8.58500 2447375.0
8.59500 2279555.0
8.60500 2531285.0
8.61500 2223615.0
8.62500 2027825.0
8.63500 1356545.0
8.64500 1314590.0
8.65500 1650230.0
8.66500 1915945.0
8.67500 1664215.0
8.68500 1454440.0
8.69500 1804065.0
8.70500 2013840.0
8.71500 2055795.0
8.72500 2153690.0
8.73500 2153690.0
8.74500 1999855.0
8.75500 1678200.0
8.76500 2293540.0
8.77500 2041810.0
8.78500 2195645.0
8.79500 2027825.0
8.80500 2307525.0
8.81500 2489330.0
8.82500 2433390.0
8.83500 2461360.0
8.84500 2419405.0
8.85500 2279555.0
8.86500 1901960.0
8.87500 2181660.0
8.88500 3608130.0
8.89500 2489330.0
8.90500 2209630.0
8.91500 3244520.0
8.92500 2531285.0
8.93500 2237600.0
8.94500 1594290.0
8.95500 1608275.0
8.96500 1412485.0
8.97500 1398500.0
8.98500 1636245.0
8.99500 1538350.0
9.00500 2125720.0
9.01500 2503315.0
9.02500 2461360.0
9.03500 2755045.0
9.04500 2055795.0
9.05500 1832035.0
9.06500 1622260.0
9.07500 1566320.0
9.08500 1188725.0
9.09500 1622260.0
9.10500 1440455.0
9.11500 1762110.0
9.12500 2335495.0
9.13500 1678200.0
9.14500 2153690.0
9.15500 1846020.0
9.16500 1999855.0
9.17500 1720155.0
9.18500 2167675.0
9.19500 2111735.0
9.20500 2209630.0
9.21500 2237600.0
9.22500 2391435.0
9.23500 1985870.0
9.24500 1873990.0
9.25500 2195645.0
9.26500 2307525.0
9.27500 2097750.0
9.28500 2587225.0
9.29500 2866925.0
9.30500 2852940.0
9.31500 2908880.0
9.32500 2321510.0
9.33500 2167675.0
9.34500 1957900.0
9.35500 2209630.0
9.36500 3384370.0
9.37500 2545270.0
9.38500 3468280.0
9.39500 2433390.0
9.40500 2153690.0
9.41500 1202710.0
