0.00500 45752872.0
0.01500 51029808.0
0.02500 42105088.0
0.03500 26916388.0
0.04500 14518019.0
0.05500 7271227.0
0.06500 4268526.0
0.07500 3869246.0
0.08500 4247899.0
0.09500 4762257.0
0.10500 5297964.0
0.11500 5836113.0
0.12500 6372974.0
0.13500 6908305.0
0.14500 7492835.0
0.15500 7993650.0
0.16500 8525145.0
0.17500 9126263.0
0.18500 9652896.0
0.19500 10076875.0
0.20500 10598606.0
0.21500 11043068.0
0.22500 11551582.0
0.23500 12070800.0
0.24500 12493417.0
0.25500 12995223.0
0.26500 13438740.0
0.27500 13867181.0
0.28500 14445891.0
0.29500 14940136.0
0.30500 15442026.0
0.31500 15881354.0
0.32500 16401328.0
0.33500 16853494.0
0.34500 17159612.0
0.35500 17595360.0
0.36500 18119796.0
0.37500 18494544.0
0.38500 18956352.0
0.39500 19349816.0
0.40500 19672904.0
0.41500 19963982.0
0.42500 20395146.0
0.43500 20697544.0
0.44500 21194574.0
0.45500 21542160.0
0.46500 21912858.0
0.47500 22243990.0
0.48500 22598648.0
0.49500 22895566.0
0.50500 23266534.0
0.51500 23420212.0
0.52500 23599166.0
0.53500 24114580.0
0.54500 24554132.0
0.55500 24625534.0
0.56500 24937192.0
0.57500 25191706.0
0.58500 25294556.0
0.59500 25245734.0
0.60500 25390320.0
0.61500 25452588.0
0.62500 25458700.0
0.63500 25327968.0
0.64500 25065344.0
0.65500 24408436.0
0.66500 23608438.0
0.67500 22163192.0
0.68500 19954102.0
0.69500 17195598.0
0.70500 14254397.0
0.71500 11751957.0
0.72500 9815543.0
0.73500 8329920.0
0.74500 7219522.0
0.75500 6368418.0
0.76500 5669396.0
0.77500 5062043.0
0.78500 4538852.0
0.79500 4121489.0
0.80500 3734730.0
0.81500 3433178.0
0.82500 3120375.0
0.83500 2852207.0
0.84500 2656947.0
0.85500 2483152.0
0.86500 2297800.0
0.87500 2126544.0
0.88500 1971336.0
0.89500 1846385.0
0.90500 1731552.0
0.91500 1630351.0
0.92500 1532418.0
0.93500 1435958.0
0.94500 1351493.0
0.95500 1285012.0
0.96500 1211934.0
0.97500 1143288.0
0.98500 1083063.0
0.99500 1028454.0
1.00500 977890.0
1.01500 933712.0
1.02500 882101.0
1.03500 837021.0
1.04500 803892.0
1.05500 765939.0
1.06500 727918.0
1.07500 693751.0
1.08500 664984.0
1.09500 636450.0
1.10500 607496.0
1.11500 585895.0
1.12500 556227.0
1.13500 534489.0
1.14500 516029.0
1.15500 492290.0
1.16500 471332.0
1.17500 454693.0
1.18500 438320.0
1.19500 419016.0
1.20500 403656.0
1.21500 390815.0
1.22500 377720.0
1.23500 364794.0
1.24500 354095.0
1.25500 345389.0
1.26500 333004.0
1.27500 319961.0
1.28500 310012.0
1.29500 301065.0
1.30500 291550.0
1.31500 282833.0
1.32500 279370.0
1.33500 270756.0
1.34500 263437.0
1.35500 256653.0
1.36500 250951.0
1.37500 242176.0
1.38500 234505.0
1.39500 230110.0
1.40500 224467.0
1.41500 218022.0
1.42500 212268.0
1.43500 209863.0
1.44500 205386.0
1.45500 200079.0
1.46500 196623.0
1.47500 195606.0
1.48500 193676.0
1.49500 193278.0
1.50500 189717.0
1.51500 199240.0
1.52500 187564.0
1.53500 185360.0
1.54500 181485.0
1.55500 179922.0
1.56500 176840.0
1.57500 175721.0
1.58500 175928.0
1.59500 177170.0
1.60500 179047.0
1.61500 178269.0
1.62500 177864.0
1.63500 181465.0
1.64500 184622.0
1.65500 183996.0
1.66500 184779.0
1.67500 188414.0
1.68500 191876.0
1.69500 196748.0
1.70500 203631.0
1.71500 215387.0
1.72500 224875.0
1.73500 230447.0
1.74500 240878.0
1.75500 259146.0
1.76500 271385.0
1.77500 278388.0
1.78500 300774.0
1.79500 334375.0
1.80500 367275.0
1.81500 402248.0
1.82500 451924.0
1.83500 524026.0
1.84500 596599.0
1.85500 693652.0
1.86500 879414.0
1.87500 1161324.0
1.88500 1582942.0
1.89500 2336638.0
1.90500 3815518.0
1.91500 6582296.0
1.92500 10756649.0
1.93500 16289263.0
1.94500 21183022.0
1.95500 22333932.0
1.96500 18154988.0
1.97500 10757882.0
1.98500 4544644.0
1.99500 1891047.0
2.00500 1113294.0
2.01500 720780.0
2.02500 479900.0
2.03500 374469.0
2.04500 303607.0
2.05500 233034.0
2.06500 175849.0
2.07500 150015.0
2.08500 131103.0
2.09500 106665.0
2.10500 86266.0
2.11500 79212.0
2.12500 71174.0
2.13500 57621.0
2.14500 48231.0
2.15500 46340.0
2.16500 43841.0
2.17500 36947.0
2.18500 31788.0
2.19500 30346.0
2.20500 29631.0
2.21500 25129.0
2.22500 21326.0
2.23500 20377.0
2.24500 19815.0
2.25500 16985.0
2.26500 14851.0
2.27500 15155.0
2.28500 15080.0
2.29500 13513.0
2.30500 11908.0
2.31500 12077.0
2.32500 12123.0
2.33500 10869.0
2.34500 9063.0
2.35500 8992.0
2.36500 9337.0
2.37500 8863.0
2.38500 7783.0
2.39500 8342.0
2.40500 8977.0
2.41500 8277.0
2.42500 7202.0
2.43500 7030.0
2.44500 7118.0
2.45500 6766.0
2.46500 5781.0
2.47500 5621.0
2.48500 5978.0
2.49500 6069.0
2.50500 5151.0
2.51500 5087.0
2.52500 5746.0
2.53500 5642.0
2.54500 4922.0
2.55500 4812.0
2.56500 4976.0
2.57500 5005.0
2.58500 4398.0
2.59500 4173.0
2.60500 4521.0
2.61500 4732.0
2.62500 4213.0
2.63500 3922.0
2.64500 4450.0
2.65500 4540.0
2.66500 4304.0
2.67500 4008.0
2.68500 3846.0
2.69500 4071.0
2.70500 3727.0
2.71500 3346.0
2.72500 3575.0
2.73500 3858.0
2.74500 3693.0
2.75500 3297.0
2.76500 3610.0
2.77500 3977.0
2.78500 3730.0
2.79500 3343.0
2.80500 3393.0
2.81500 3633.0
2.82500 3573.0
2.83500 3285.0
2.84500 3204.0
2.85500 3479.0
2.86500 3570.0
2.87500 3229.0
2.88500 3265.0
2.89500 3526.0
2.90500 3296.0
2.91500 3165.0
2.92500 2891.0
2.93500 2848.0
2.94500 3195.0
2.95500 3082.0
2.96500 2634.0
2.97500 2811.0
2.98500 3073.0
2.99500 3110.0
3.00500 2807.0
3.01500 2880.0
3.02500 3112.0
3.03500 3070.0
3.04500 2647.0
3.05500 2463.0
3.06500 2565.0
3.07500 2633.0
3.08500 2443.0
3.09500 2303.0
3.10500 2525.0
3.11500 2550.0
3.12500 2407.0
3.13500 2197.0
3.14500 2454.0
3.15500 2446.0
3.16500 2345.0
3.17500 2084.0
3.18500 2268.0
3.19500 2299.0
3.20500 2322.0
3.21500 2239.0
3.22500 2264.0
3.23500 2450.0
3.24500 2561.0
3.25500 2197.0
3.26500 2218.0
3.27500 2246.0
3.28500 2235.0
3.29500 1861.0
3.30500 1805.0
3.31500 2053.0
3.32500 2029.0
3.33500 1956.0
3.34500 1842.0
3.35500 1935.0
3.36500 2247.0
3.37500 2074.0
3.38500 1927.0
3.39500 1865.0
3.40500 1885.0
3.41500 1736.0
3.42500 1622.0
3.43500 1495.0
3.44500 1574.0
3.45500 1542.0
3.46500 1476.0
3.47500 1389.0
3.48500 1545.0
3.49500 1704.0
3.50500 1646.0
3.51500 1454.0
3.52500 1479.0
3.53500 1597.0
3.54500 1426.0
3.55500 1174.0
3.56500 1162.0
3.57500 1310.0
3.58500 1587.0
3.59500 1716.0
3.60500 1930.0
3.61500 2676.0
3.62500 3981.0
3.63500 4974.0
3.64500 6475.0
3.65500 11184.0
3.66500 23477.0
3.67500 45630.0
3.68500 84341.0
3.69500 151544.0
3.70500 261055.0
3.71500 386225.0
3.72500 428853.0
3.73500 338202.0
3.74500 197260.0
3.75500 101132.0
3.76500 53719.0
3.77500 33023.0
3.78500 21939.0
3.79500 16154.0
3.80500 13636.0
3.81500 11301.0
3.82500 9656.0
3.83500 8439.0
3.84500 7783.0
3.85500 7072.0
3.86500 6361.0
3.87500 6085.0
3.88500 6005.0
3.89500 5609.0
3.90500 5328.0
3.91500 4908.0
3.92500 4643.0
3.93500 4401.0
3.94500 4232.0
3.95500 3916.0
3.96500 3896.0
3.97500 3826.0
3.98500 3762.0
3.99500 3669.0
4.00500 3530.0
4.01500 3561.0
4.02500 3202.0
4.03500 3310.0
4.04500 3151.0
4.05500 3084.0
4.06500 3079.0
4.07500 2997.0
4.08500 2836.0
4.09500 2903.0
4.10500 2909.0
4.11500 2807.0
4.12500 2788.0
4.13500 2777.0
4.14500 2577.0
4.15500 2673.0
4.16500 2614.0
4.17500 2499.0
4.18500 2516.0
4.19500 2438.0
4.20500 2459.0
4.21500 2541.0
4.22500 2486.0
4.23500 2362.0
4.24500 2317.0
4.25500 2268.0
4.26500 2177.0
4.27500 2043.0
4.28500 2090.0
4.29500 2148.0
4.30500 2012.0
4.31500 1903.0
4.32500 1875.0
4.33500 1895.0
4.34500 1941.0
4.35500 1820.0
4.36500 1860.0
4.37500 2018.0
4.38500 2049.0
4.39500 1856.0
4.40500 1849.0
4.41500 1776.0
4.42500 1871.0
4.43500 1749.0
4.44500 1812.0
4.45500 1773.0
4.46500 1746.0
4.47500 1715.0
4.48500 1715.0
4.49500 1668.0
4.50500 1812.0
4.51500 1771.0
4.52500 1642.0
4.53500 1649.0
4.54500 1627.0
4.55500 1550.0
4.56500 1492.0
4.57500 1475.0
4.58500 1466.0
4.59500 1614.0
4.60500 1612.0
4.61500 1483.0
4.62500 1589.0
4.63500 1556.0
4.64500 1533.0
4.65500 1488.0
4.66500 1477.0
4.67500 1447.0
4.68500 1408.0
4.69500 1369.0
4.70500 1424.0
4.71500 1469.0
4.72500 1490.0
4.73500 1424.0
4.74500 1410.0
4.75500 1427.0
4.76500 1435.0
4.77500 1367.0
4.78500 1284.0
4.79500 1339.0
4.80500 1385.0
4.81500 1248.0
4.82500 1207.0
4.83500 1289.0
4.84500 1296.0
4.85500 1306.0
4.86500 1169.0
4.87500 1147.0
4.88500 1197.0
4.89500 1361.0
4.90500 1203.0
4.91500 1304.0
4.92500 1340.0
4.93500 1317.0
4.94500 1306.0
4.95500 1256.0
4.96500 1208.0
4.97500 1179.0
4.98500 1173.0
4.99500 1170.0
5.00500 1143.0
5.01500 1288.0
5.02500 1245.0
5.03500 1168.0
5.04500 1210.0
5.05500 1218.0
5.06500 1210.0
5.07500 1203.0
5.08500 1058.0
5.09500 1102.0
5.10500 1040.0
5.11500 1108.0
5.12500 1125.0
5.13500 1213.0
5.14500 1211.0
5.15500 1193.0
5.16500 1109.0
5.17500 1117.0
5.18500 1230.0
5.19500 1257.0
5.20500 1105.0
5.21500 1146.0
5.22500 1197.0
5.23500 1225.0
5.24500 1233.0
5.25500 1303.0
5.26500 1313.0
5.27500 1427.0
5.28500 1374.0
5.29500 1298.0
5.30500 1437.0
5.31500 1419.0
5.32500 1348.0
5.33500 1428.0
5.34500 1508.0
5.35500 1796.0
5.36500 1793.0
5.37500 1815.0
5.38500 2122.0
5.39500 2486.0
5.40500 2691.0
5.41500 3024.0
5.42500 3887.0
5.43500 4944.0
5.44500 6170.0
5.45500 8440.0
5.46500 13610.0
5.47500 21860.0
5.48500 34008.0
5.49500 46917.0
5.50500 61157.0
5.51500 78748.0
5.52500 96236.0
5.53500 103663.0
5.54500 94473.0
5.55500 70961.0
5.56500 44623.0
5.57500 27111.0
5.58500 16194.0
5.59500 10635.0
5.60500 6867.0
5.61500 4570.0
5.62500 3138.0
5.63500 2241.0
5.64500 1950.0
5.65500 1724.0
5.66500 1404.0
5.67500 1211.0
5.68500 1038.0
5.69500 889.0
5.70500 901.0
5.71500 805.0
5.72500 754.0
5.73500 701.0
5.74500 657.0
5.75500 643.0
5.76500 654.0
5.77500 625.0
5.78500 585.0
5.79500 614.0
5.80500 497.0
5.81500 537.0
5.82500 545.0
5.83500 555.0
5.84500 510.0
5.85500 555.0
5.86500 562.0
5.87500 581.0
5.88500 532.0
5.89500 572.0
5.90500 494.0
5.91500 487.0
5.92500 464.0
5.93500 468.0
5.94500 433.0
5.95500 485.0
5.96500 480.0
5.97500 552.0
5.98500 558.0
5.99500 507.0
6.00500 558.0
6.01500 636.0
6.02500 561.0
6.03500 475.0
6.04500 417.0
6.05500 455.0
6.06500 419.0
6.07500 459.0
6.08500 401.0
6.09500 451.0
6.10500 474.0
6.11500 438.0
6.12500 453.0
6.13500 435.0
6.14500 465.0
6.15500 387.0
6.16500 479.0
6.17500 473.0
6.18500 494.0
6.19500 468.0
6.20500 404.0
6.21500 398.0
6.22500 423.0
6.23500 416.0
6.24500 446.0
6.25500 358.0
6.26500 413.0
6.27500 408.0
6.28500 389.0
6.29500 368.0
6.30500 380.0
6.31500 395.0
6.32500 374.0
6.33500 335.0
6.34500 438.0
6.35500 350.0
6.36500 402.0
6.37500 346.0
6.38500 354.0
6.39500 349.0
6.40500 313.0
6.41500 310.0
6.42500 202.0
6.43500 228.0
6.44500 294.0
6.45500 327.0
6.46500 282.0
6.47500 269.0
6.48500 301.0
6.49500 281.0
6.50500 330.0
6.51500 317.0
6.52500 319.0
6.53500 314.0
6.54500 282.0
6.55500 256.0
6.56500 225.0
6.57500 309.0
6.58500 317.0
6.59500 295.0
6.60500 317.0
6.61500 323.0
6.62500 396.0
6.63500 301.0
6.64500 262.0
6.65500 339.0
6.66500 302.0
6.67500 303.0
6.68500 317.0
6.69500 202.0
6.70500 222.0
6.71500 200.0
6.72500 211.0
6.73500 221.0
6.74500 218.0
6.75500 203.0
6.76500 236.0
6.77500 219.0
6.78500 230.0
6.79500 258.0
6.80500 256.0
6.81500 265.0
6.82500 293.0
6.83500 332.0
6.84500 326.0
6.85500 258.0
6.86500 256.0
6.87500 286.0
6.88500 233.0
6.89500 249.0
6.90500 251.0
6.91500 269.0
6.92500 300.0
6.93500 264.0
6.94500 224.0
6.95500 236.0
6.96500 275.0
6.97500 241.0
6.98500 236.0
6.99500 212.0
7.00500 239.0
7.01500 307.0
7.02500 240.0
7.03500 230.0
7.04500 209.0
7.05500 191.0
7.06500 250.0
7.07500 218.0
7.08500 252.0
7.09500 195.0
7.10500 195.0
7.11500 201.0
7.12500 188.0
7.13500 224.0
7.14500 259.0
7.15500 249.0
7.16500 209.0
7.17500 189.0
7.18500 169.0
7.19500 238.0
7.20500 269.0
7.21500 336.0
7.22500 455.0
7.23500 581.0
7.24500 758.0
7.25500 1070.0
7.26500 1340.0
7.27500 2158.0
7.28500 3698.0
7.29500 5849.0
7.30500 8330.0
7.31500 11184.0
7.32500 13192.0
7.33500 15912.0
7.34500 19329.0
7.35500 21716.0
7.36500 22157.0
7.37500 18820.0
7.38500 14229.0
7.39500 10077.0
7.40500 6889.0
7.41500 4777.0
7.42500 3774.0
7.43500 2707.0
7.44500 2066.0
7.45500 1487.0
7.46500 1321.0
7.47500 1110.0
7.48500 932.0
7.49500 823.0
7.50500 845.0
7.51500 751.0
7.52500 627.0
7.53500 707.0
7.54500 649.0
7.55500 584.0
7.56500 500.0
7.57500 492.0
7.58500 476.0
7.59500 450.0
7.60500 451.0
7.61500 369.0
7.62500 417.0
7.63500 384.0
7.64500 373.0
7.65500 284.0
7.66500 262.0
7.67500 250.0
7.68500 296.0
7.69500 319.0
7.70500 306.0
7.71500 321.0
7.72500 330.0
7.73500 342.0
7.74500 334.0
7.75500 315.0
7.76500 353.0
7.77500 383.0
7.78500 296.0
7.79500 347.0
7.80500 233.0
7.81500 205.0
7.82500 231.0
7.83500 234.0
7.84500 231.0
7.85500 234.0
7.86500 255.0
7.87500 258.0
7.88500 240.0
7.89500 264.0
7.90500 227.0
7.91500 188.0
7.92500 166.0
7.93500 202.0
7.94500 222.0
7.95500 170.0
7.96500 225.0
7.97500 242.0
7.98500 260.0
7.99500 229.0
8.00500 219.0
8.01500 218.0
8.02500 208.0
8.03500 196.0
8.04500 191.0
8.05500 202.0
8.06500 182.0
8.07500 213.0
8.08500 195.0
8.09500 191.0
8.10500 174.0
8.11500 159.0
8.12500 129.0
8.13500 170.0
8.14500 164.0
8.15500 171.0
8.16500 230.0
8.17500 211.0
8.18500 160.0
8.19500 123.0
8.20500 151.0
8.21500 192.0
8.22500 198.0
8.23500 195.0
8.24500 183.0
8.25500 184.0
8.26500 173.0
8.27500 156.0
8.28500 170.0
8.29500 167.0
8.30500 140.0
8.31500 203.0
8.32500 154.0
8.33500 195.0
8.34500 167.0
8.35500 134.0
8.36500 157.0
8.37500 120.0
8.38500 126.0
8.39500 143.0
8.40500 130.0
8.41500 159.0
8.42500 152.0
8.43500 171.0
8.44500 149.0
8.45500 163.0
8.46500 180.0
8.47500 170.0
8.48500 183.0
8.49500 154.0
8.50500 164.0
8.51500 105.0
8.52500 137.0
8.53500 100.0
8.54500 106.0
8.55500 138.0
8.56500 150.0
8.57500 110.0
8.58500 122.0
8.59500 141.0
8.60500 164.0
8.61500 187.0
8.62500 224.0
8.63500 160.0
8.64500 141.0
8.65500 120.0
8.66500 94.0
8.67500 119.0
8.68500 121.0
8.69500 85.0
8.70500 135.0
8.71500 120.0
8.72500 117.0
8.73500 160.0
8.74500 118.0
8.75500 134.0
8.76500 133.0
8.77500 155.0
8.78500 141.0
8.79500 136.0
8.80500 137.0
8.81500 165.0
8.82500 131.0
8.83500 170.0
8.84500 179.0
8.85500 218.0
8.86500 210.0
8.87500 210.0
8.88500 217.0
8.89500 236.0
8.90500 183.0
8.91500 177.0
8.92500 158.0
8.93500 251.0
8.94500 206.0
8.95500 235.0
8.96500 182.0
8.97500 251.0
8.98500 193.0
8.99500 188.0
9.00500 205.0
9.01500 268.0
9.02500 254.0
9.03500 260.0
9.04500 270.0
9.05500 294.0
9.06500 294.0
9.07500 344.0
9.08500 300.0
9.09500 303.0
9.10500 321.0
9.11500 386.0
9.12500 438.0
9.13500 472.0
9.14500 407.0
9.15500 424.0
9.16500 539.0
9.17500 602.0
9.18500 690.0
9.19500 701.0
9.20500 655.0
9.21500 555.0
9.22500 422.0
9.23500 354.0
9.24500 262.0
9.25500 216.0
9.26500 232.0
9.27500 160.0
9.28500 139.0
9.29500 115.0
9.30500 113.0
9.31500 111.0
9.32500 90.0
9.33500 91.0
9.34500 76.0
9.35500 83.0
9.36500 70.0
9.37500 90.0
9.38500 119.0
9.39500 92.0
9.40500 92.0
9.41500 92.0
9.42500 89.0
9.43500 90.0
9.44500 80.0
9.45500 103.0
9.46500 87.0
9.47500 97.0
9.48500 74.0
9.49500 80.0
9.50500 79.0
9.51500 109.0
9.52500 112.0
9.53500 106.0
9.54500 83.0
9.55500 103.0
9.56500 77.0
9.57500 57.0
9.58500 78.0
9.59500 69.0
9.60500 78.0
9.61500 121.0
9.62500 90.0
9.63500 110.0
9.64500 84.0
9.65500 105.0
9.66500 105.0
9.67500 101.0
9.68500 95.0
9.69500 125.0
9.70500 134.0
9.71500 104.0
9.72500 107.0
9.73500 118.0
9.74500 135.0
9.75500 98.0
9.76500 106.0
9.77500 103.0
9.78500 63.0
9.79500 95.0
9.80500 74.0
9.81500 84.0
9.82500 88.0
9.83500 94.0
9.84500 132.0
9.85500 160.0
9.86500 138.0
9.87500 115.0
9.88500 157.0
9.89500 158.0
9.90500 169.0
9.91500 135.0
9.92500 128.0
9.93500 132.0
9.94500 194.0
9.95500 180.0
9.96500 153.0
9.97500 149.0
9.98500 147.0
9.99500 155.0
10.00500 188.0
10.01500 188.0
10.02500 186.0
10.03500 168.0
10.04500 146.0
10.05500 174.0
10.06500 144.0
10.07500 159.0
10.08500 142.0
10.09500 115.0
10.10500 121.0
10.11500 100.0
10.12500 146.0
10.13500 143.0
10.14500 144.0
10.15500 158.0
10.16500 101.0
10.17500 113.0
10.18500 113.0
10.19500 91.0
10.20500 150.0
10.21500 139.0
10.22500 163.0
10.23500 143.0
10.24500 122.0
10.25500 118.0
10.26500 118.0
10.27500 123.0
10.28500 113.0
10.29500 128.0
10.30500 132.0
10.31500 97.0
10.32500 121.0
10.33500 126.0
10.34500 125.0
10.35500 94.0
10.36500 87.0
10.37500 109.0
10.38500 91.0
10.39500 105.0
10.40500 119.0
10.41500 144.0
10.42500 115.0
10.43500 88.0
10.44500 144.0
10.45500 162.0
10.46500 81.0
10.47500 112.0
10.48500 116.0
10.49500 90.0
10.50500 83.0
10.51500 117.0
10.52500 102.0
10.53500 97.0
10.54500 147.0
10.55500 111.0
10.56500 126.0
10.57500 105.0
10.58500 104.0
10.59500 107.0
10.60500 129.0
10.61500 119.0
10.62500 156.0
10.63500 98.0
10.64500 85.0
10.65500 94.0
10.66500 109.0
10.67500 103.0
10.68500 124.0
10.69500 156.0
10.70500 86.0
10.71500 101.0
10.72500 77.0
10.73500 149.0
10.74500 125.0
10.75500 112.0
10.76500 104.0
10.77500 107.0
10.78500 159.0
10.79500 141.0
10.80500 140.0
10.81500 137.0
10.82500 164.0
10.83500 155.0
10.84500 120.0
10.85500 116.0
10.86500 152.0
10.87500 183.0
10.88500 163.0
10.89500 156.0
10.90500 232.0
10.91500 249.0
10.92500 309.0
10.93500 388.0
10.94500 485.0
10.95500 480.0
10.96500 554.0
10.97500 489.0
10.98500 562.0
10.99500 548.0
11.00500 626.0
11.01500 754.0
11.02500 787.0
11.03500 699.0
11.04500 690.0
11.05500 578.0
11.06500 444.0
11.07500 338.0
11.08500 300.0
11.09500 222.0
11.10500 190.0
11.11500 156.0
11.12500 198.0
11.13500 149.0
11.14500 165.0
11.15500 135.0
11.16500 116.0
11.17500 115.0
11.18500 143.0
11.19500 98.0
11.20500 129.0
11.21500 112.0
11.22500 102.0
11.23500 97.0
11.24500 54.0
11.25500 74.0
11.26500 94.0
11.27500 109.0
11.28500 113.0
11.29500 91.0
11.30500 102.0
11.31500 93.0
11.32500 83.0
11.33500 94.0
11.34500 97.0
11.35500 130.0
11.36500 106.0
11.37500 79.0
11.38500 68.0
11.39500 90.0
11.40500 88.0
11.41500 134.0
11.42500 164.0
11.43500 94.0
11.44500 140.0
11.45500 161.0
11.46500 190.0
11.47500 146.0
11.48500 104.0
11.49500 83.0
11.50500 82.0
11.51500 66.0
11.52500 84.0
11.53500 61.0
11.54500 56.0
11.55500 43.0
11.56500 69.0
11.57500 61.0
11.58500 69.0
11.59500 70.0
11.60500 78.0
11.61500 52.0
11.62500 50.0
11.63500 69.0
11.64500 73.0
11.65500 73.0
11.66500 85.0
11.67500 86.0
11.68500 58.0
11.69500 65.0
11.70500 49.0
11.71500 45.0
11.72500 54.0
11.73500 52.0
11.74500 78.0
11.75500 55.0
11.76500 96.0
11.77500 90.0
11.78500 51.0
11.79500 76.0
11.80500 85.0
11.81500 95.0
11.82500 128.0
11.83500 119.0
11.84500 134.0
11.85500 92.0
11.86500 98.0
11.87500 94.0
11.88500 78.0
11.89500 87.0
11.90500 89.0
11.91500 122.0
11.92500 113.0
11.93500 96.0
11.94500 145.0
11.95500 108.0
11.96500 70.0
11.97500 118.0
11.98500 93.0
11.99500 115.0
