0.00500 42431828.0
0.01500 48274948.0
0.02500 40422996.0
0.03500 26226808.0
0.04500 14050939.0
0.05500 7273833.0
0.06500 4682858.0
0.07500 4558212.0
0.08500 4989377.0
0.09500 5558746.0
0.10500 6146567.0
0.11500 6680311.0
0.12500 7297046.0
0.13500 7819277.0
0.14500 8350019.0
0.15500 8927915.0
0.16500 9371777.0
0.17500 9935418.0
0.18500 10395785.0
0.19500 10939168.0
0.20500 11477886.0
0.21500 11990724.0
0.22500 12535118.0
0.23500 13028615.0
0.24500 13546055.0
0.25500 14022867.0
0.26500 14470691.0
0.27500 14899561.0
0.28500 15375345.0
0.29500 15906493.0
0.30500 16419638.0
0.31500 16830990.0
0.32500 17224740.0
0.33500 17629308.0
0.34500 17960468.0
0.35500 18433456.0
0.36500 18903246.0
0.37500 19322580.0
0.38500 19723392.0
0.39500 20061720.0
0.40500 20471406.0
0.41500 20842806.0
0.42500 21095542.0
0.43500 21473976.0
0.44500 21908970.0
0.45500 22251656.0
0.46500 22565706.0
0.47500 22808392.0
0.48500 23180242.0
0.49500 23326894.0
0.50500 23683008.0
0.51500 24108460.0
0.52500 24345108.0
0.53500 24667330.0
0.54500 24737484.0
0.55500 25047100.0
0.56500 25161618.0
0.57500 25257700.0
0.58500 25282256.0
0.59500 25396754.0
0.60500 25581740.0
0.61500 25872604.0
0.62500 25677216.0
0.63500 25553692.0
0.64500 25432540.0
0.65500 25147136.0
0.66500 24599896.0
0.67500 23796896.0
0.68500 22248500.0
0.69500 20107520.0
0.70500 17350436.0
0.71500 14532193.0
0.72500 12101885.0
0.73500 10171872.0
0.74500 8754246.0
0.75500 7647215.0
0.76500 6766827.0
0.77500 6089872.0
0.78500 5505930.0
0.79500 4996070.0
0.80500 4544102.0
0.81500 4137614.0
0.82500 3805496.0
0.83500 3504124.0
0.84500 3265342.0
0.85500 3039225.0
0.86500 2814773.0
0.87500 2624909.0
0.88500 2457043.0
0.89500 2302065.0
0.90500 2167651.0
0.91500 2026701.0
0.92500 1915588.0
0.93500 1812382.0
0.94500 1723398.0
0.95500 1632834.0
0.96500 1553422.0
0.97500 1471932.0
0.98500 1392101.0
0.99500 1321451.0
1.00500 1258157.0
1.01500 1204027.0
1.02500 1142957.0
1.03500 1100912.0
1.04500 1053862.0
1.05500 1010898.0
1.06500 961284.0
1.07500 919480.0
1.08500 881441.0
1.09500 840119.0
1.10500 805145.0
1.11500 772855.0
1.12500 741759.0
1.13500 715409.0
1.14500 691168.0
1.15500 661160.0
1.16500 642651.0
1.17500 620329.0
1.18500 595207.0
1.19500 569599.0
1.20500 552176.0
1.21500 534731.0
1.22500 517160.0
1.23500 494646.0
1.24500 477303.0
1.25500 462340.0
1.26500 451456.0
1.27500 439504.0
1.28500 428484.0
1.29500 419837.0
1.30500 409620.0
1.31500 394912.0
1.32500 382089.0
1.33500 368993.0
1.34500 355558.0
1.35500 348642.0
1.36500 343798.0
1.37500 337324.0
1.38500 333008.0
1.39500 323653.0
1.40500 315775.0
1.41500 308319.0
1.42500 303175.0
1.43500 295475.0
1.44500 289906.0
1.45500 281994.0
1.46500 275275.0
1.47500 270647.0
1.48500 262028.0
1.49500 256351.0
1.50500 250418.0
1.51500 246404.0
1.52500 242341.0
1.53500 237028.0
1.54500 232777.0
1.55500 232591.0
1.56500 231157.0
1.57500 226592.0
1.58500 219952.0
1.59500 215830.0
1.60500 214077.0
1.61500 209908.0
1.62500 209714.0
1.63500 210357.0
1.64500 210403.0
1.65500 210694.0
1.66500 207631.0
1.67500 205290.0
1.68500 204802.0
1.69500 206131.0
1.70500 204290.0
1.71500 207082.0
1.72500 210217.0
1.73500 213951.0
1.74500 219394.0
1.75500 222076.0
1.76500 224937.0
1.77500 229917.0
1.78500 237029.0
1.79500 240201.0
1.80500 244226.0
1.81500 250033.0
1.82500 255803.0
1.83500 263507.0
1.84500 276876.0
1.85500 288301.0
1.86500 306515.0
1.87500 319340.0
1.88500 335600.0
1.89500 355988.0
1.90500 390545.0
1.91500 429690.0
1.92500 484638.0
1.93500 549454.0
1.94500 637660.0
1.95500 745067.0
1.96500 915878.0
1.97500 1186022.0
1.98500 1620373.0
1.99500 2505885.0
2.00500 4371986.0
2.01500 8485785.0
2.02500 14528522.0
2.03500 19954544.0
2.04500 21395864.0
2.05500 16969076.0
2.06500 9588204.0
2.07500 4112870.0
2.08500 1886163.0
2.09500 1006663.0
2.10500 618181.0
2.11500 417933.0
2.12500 295055.0
2.13500 216300.0
2.14500 162940.0
2.15500 125981.0
2.16500 101048.0
2.17500 81983.0
2.18500 68725.0
2.19500 57478.0
2.20500 46871.0
2.21500 38796.0
2.22500 32360.0
2.23500 28443.0
2.24500 24502.0
2.25500 21128.0
2.26500 18244.0
2.27500 15304.0
2.28500 13398.0
2.29500 11815.0
2.30500 10302.0
2.31500 9506.0
2.32500 8442.0
2.33500 7924.0
2.34500 7159.0
2.35500 6581.0
2.36500 5925.0
2.37500 5436.0
2.38500 5172.0
2.39500 4618.0
2.40500 4277.0
2.41500 4045.0
2.42500 4019.0
2.43500 3858.0
2.44500 3553.0
2.45500 3327.0
2.46500 3092.0
2.47500 2924.0
2.48500 2748.0
2.49500 2574.0
2.50500 2482.0
2.51500 2398.0
2.52500 2334.0
2.53500 2199.0
2.54500 2197.0
2.55500 1982.0
2.56500 2017.0
2.57500 1858.0
2.58500 1664.0
2.59500 1623.0
2.60500 1526.0
2.61500 1508.0
2.62500 1533.0
2.63500 1474.0
2.64500 1399.0
2.65500 1380.0
2.66500 1334.0
2.67500 1369.0
2.68500 1271.0
2.69500 1239.0
2.70500 1267.0
2.71500 1305.0
2.72500 1275.0
2.73500 1349.0
2.74500 1294.0
2.75500 1216.0
2.76500 1176.0
2.77500 1097.0
2.78500 1068.0
2.79500 1058.0
2.80500 1077.0
2.81500 1012.0
2.82500 1003.0
2.83500 877.0
2.84500 887.0
2.85500 786.0
2.86500 709.0
2.87500 618.0
2.88500 631.0
2.89500 602.0
2.90500 644.0
2.91500 609.0
2.92500 523.0
2.93500 559.0
2.94500 545.0
2.95500 490.0
2.96500 537.0
2.97500 540.0
2.98500 512.0
2.99500 471.0
3.00500 473.0
3.01500 446.0
3.02500 385.0
3.03500 390.0
3.04500 395.0
3.05500 431.0
3.06500 413.0
3.07500 387.0
3.08500 431.0
3.09500 403.0
3.10500 453.0
3.11500 415.0
3.12500 399.0
3.13500 435.0
3.14500 419.0
3.15500 411.0
3.16500 351.0
3.17500 321.0
3.18500 328.0
3.19500 287.0
3.20500 256.0
3.21500 281.0
3.22500 271.0
3.23500 282.0
3.24500 312.0
3.25500 321.0
3.26500 273.0
3.27500 275.0
3.28500 279.0
3.29500 223.0
3.30500 273.0
3.31500 296.0
3.32500 259.0
3.33500 246.0
3.34500 221.0
3.35500 262.0
3.36500 259.0
3.37500 206.0
3.38500 215.0
3.39500 237.0
3.40500 257.0
3.41500 239.0
3.42500 210.0
3.43500 242.0
3.44500 259.0
3.45500 241.0
3.46500 241.0
3.47500 252.0
3.48500 296.0
3.49500 402.0
3.50500 448.0
3.51500 587.0
3.52500 604.0
3.53500 574.0
3.54500 438.0
3.55500 365.0
3.56500 329.0
3.57500 401.0
3.58500 451.0
3.59500 409.0
3.60500 413.0
3.61500 433.0
3.62500 487.0
3.63500 564.0
3.64500 593.0
3.65500 612.0
3.66500 645.0
3.67500 661.0
3.68500 801.0
3.69500 999.0
3.70500 1149.0
3.71500 1203.0
3.72500 1380.0
3.73500 1548.0
3.74500 1684.0
3.75500 1832.0
3.76500 2205.0
3.77500 2752.0
3.78500 3449.0
3.79500 4367.0
3.80500 5686.0
3.81500 7705.0
3.82500 10846.0
3.83500 15925.0
3.84500 25267.0
3.85500 46272.0
3.86500 111090.0
3.87500 283199.0
3.88500 562817.0
3.89500 860618.0
3.90500 901535.0
3.91500 646100.0
3.92500 324134.0
3.93500 144002.0
3.94500 66102.0
3.95500 34731.0
3.96500 22583.0
3.97500 16388.0
3.98500 12453.0
3.99500 9778.0
4.00500 7956.0
4.01500 6575.0
4.02500 5573.0
4.03500 5130.0
4.04500 4515.0
4.05500 4124.0
4.06500 3797.0
4.07500 3409.0
4.08500 2866.0
4.09500 2867.0
4.10500 2492.0
4.11500 2311.0
4.12500 2148.0
4.13500 2022.0
4.14500 1933.0
4.15500 1837.0
4.16500 1784.0
4.17500 1849.0
4.18500 1620.0
4.19500 1599.0
4.20500 1545.0
4.21500 1646.0
4.22500 1478.0
4.23500 1481.0
4.24500 1419.0
4.25500 1331.0
4.26500 1347.0
4.27500 1205.0
4.28500 1368.0
4.29500 1291.0
4.30500 1242.0
4.31500 1142.0
4.32500 1140.0
4.33500 1111.0
4.34500 1075.0
4.35500 1020.0
4.36500 1004.0
4.37500 985.0
4.38500 995.0
4.39500 986.0
4.40500 886.0
4.41500 844.0
4.42500 831.0
4.43500 826.0
4.44500 890.0
4.45500 832.0
4.46500 837.0
4.47500 791.0
4.48500 809.0
4.49500 786.0
4.50500 723.0
4.51500 794.0
4.52500 830.0
4.53500 883.0
4.54500 820.0
4.55500 870.0
4.56500 793.0
4.57500 722.0
4.58500 755.0
4.59500 694.0
4.60500 618.0
4.61500 637.0
4.62500 671.0
4.63500 705.0
4.64500 695.0
4.65500 744.0
4.66500 749.0
4.67500 689.0
4.68500 604.0
4.69500 731.0
4.70500 684.0
4.71500 669.0
4.72500 676.0
4.73500 708.0
4.74500 751.0
4.75500 658.0
4.76500 657.0
4.77500 576.0
4.78500 637.0
4.79500 682.0
4.80500 638.0
4.81500 684.0
4.82500 675.0
4.83500 629.0
4.84500 671.0
4.85500 641.0
4.86500 623.0
4.87500 633.0
4.88500 522.0
4.89500 511.0
4.90500 574.0
4.91500 616.0
4.92500 599.0
4.93500 503.0
4.94500 527.0
4.95500 504.0
4.96500 516.0
4.97500 531.0
4.98500 548.0
4.99500 512.0
5.00500 521.0
5.01500 464.0
5.02500 483.0
5.03500 490.0
5.04500 502.0
5.05500 472.0
5.06500 568.0
5.07500 576.0
5.08500 631.0
5.09500 582.0
5.10500 553.0
5.11500 524.0
5.12500 534.0
5.13500 535.0
5.14500 504.0
5.15500 473.0
5.16500 502.0
5.17500 513.0
5.18500 490.0
5.19500 509.0
5.20500 563.0
5.21500 520.0
5.22500 581.0
5.23500 581.0
5.24500 556.0
5.25500 530.0
5.26500 544.0
5.27500 605.0
5.28500 559.0
5.29500 534.0
5.30500 531.0
5.31500 539.0
5.32500 545.0
5.33500 542.0
5.34500 504.0
5.35500 451.0
5.36500 479.0
5.37500 456.0
5.38500 450.0
5.39500 523.0
5.40500 554.0
5.41500 588.0
5.42500 603.0
5.43500 548.0
5.44500 462.0
5.45500 461.0
5.46500 490.0
5.47500 477.0
5.48500 528.0
5.49500 561.0
5.50500 572.0
5.51500 603.0
5.52500 688.0
5.53500 610.0
5.54500 627.0
5.55500 579.0
5.56500 588.0
5.57500 632.0
5.58500 593.0
5.59500 608.0
5.60500 637.0
5.61500 667.0
5.62500 725.0
5.63500 708.0
5.64500 708.0
5.65500 860.0
5.66500 899.0
5.67500 1044.0
5.68500 1053.0
5.69500 1176.0
5.70500 1425.0
5.71500 1701.0
5.72500 2074.0
5.73500 2694.0
5.74500 4184.0
5.75500 7603.0
5.76500 16009.0
5.77500 32863.0
5.78500 53894.0
5.79500 68754.0
5.80500 65672.0
5.81500 48297.0
5.82500 28617.0
5.83500 14892.0
5.84500 7712.0
5.85500 3944.0
5.86500 2068.0
5.87500 1330.0
5.88500 894.0
5.89500 749.0
5.90500 532.0
5.91500 502.0
5.92500 409.0
5.93500 316.0
5.94500 255.0
5.95500 246.0
5.96500 215.0
5.97500 241.0
5.98500 199.0
5.99500 203.0
6.00500 199.0
6.01500 170.0
6.02500 206.0
6.03500 212.0
6.04500 194.0
6.05500 163.0
6.06500 167.0
6.07500 183.0
6.08500 178.0
6.09500 157.0
6.10500 166.0
6.11500 160.0
6.12500 169.0
6.13500 153.0
6.14500 178.0
6.15500 171.0
6.16500 145.0
6.17500 129.0
6.18500 123.0
6.19500 120.0
6.20500 126.0
6.21500 152.0
6.22500 153.0
6.23500 176.0
6.24500 158.0
6.25500 180.0
6.26500 167.0
6.27500 156.0
6.28500 158.0
6.29500 155.0
6.30500 168.0
6.31500 148.0
6.32500 135.0
6.33500 132.0
6.34500 133.0
6.35500 126.0
6.36500 138.0
6.37500 148.0
6.38500 149.0
6.39500 150.0
6.40500 159.0
6.41500 155.0
6.42500 163.0
6.43500 147.0
6.44500 159.0
6.45500 136.0
6.46500 129.0
6.47500 100.0
6.48500 110.0
6.49500 119.0
6.50500 107.0
6.51500 119.0
6.52500 123.0
6.53500 136.0
6.54500 99.0
6.55500 129.0
6.56500 149.0
6.57500 106.0
6.58500 154.0
6.59500 112.0
6.60500 125.0
6.61500 107.0
6.62500 95.0
6.63500 96.0
6.64500 101.0
6.65500 113.0
6.66500 114.0
6.67500 120.0
6.68500 129.0
6.69500 104.0
6.70500 83.0
6.71500 89.0
6.72500 110.0
6.73500 134.0
6.74500 110.0
6.75500 102.0
6.76500 118.0
6.77500 123.0
6.78500 92.0
6.79500 121.0
6.80500 110.0
6.81500 96.0
6.82500 90.0
6.83500 115.0
6.84500 130.0
6.85500 117.0
6.86500 96.0
6.87500 121.0
6.88500 125.0
6.89500 124.0
6.90500 109.0
6.91500 149.0
6.92500 161.0
6.93500 173.0
6.94500 185.0
6.95500 259.0
6.96500 410.0
6.97500 436.0
6.98500 471.0
6.99500 365.0
7.00500 379.0
7.01500 270.0
7.02500 195.0
7.03500 129.0
7.04500 135.0
7.05500 108.0
7.06500 145.0
7.07500 143.0
7.08500 131.0
7.09500 96.0
7.10500 144.0
7.11500 130.0
7.12500 196.0
7.13500 154.0
7.14500 126.0
7.15500 95.0
7.16500 102.0
7.17500 94.0
7.18500 120.0
7.19500 135.0
7.20500 150.0
7.21500 131.0
7.22500 128.0
7.23500 148.0
7.24500 161.0
7.25500 178.0
7.26500 153.0
7.27500 135.0
7.28500 156.0
7.29500 150.0
7.30500 180.0
7.31500 167.0
7.32500 199.0
7.33500 150.0
7.34500 152.0
7.35500 193.0
7.36500 182.0
7.37500 156.0
7.38500 163.0
7.39500 170.0
7.40500 166.0
7.41500 159.0
7.42500 175.0
7.43500 235.0
7.44500 261.0
7.45500 219.0
7.46500 198.0
7.47500 195.0
7.48500 205.0
7.49500 191.0
7.50500 303.0
7.51500 264.0
7.52500 305.0
7.53500 310.0
7.54500 285.0
7.55500 293.0
7.56500 316.0
7.57500 274.0
7.58500 329.0
7.59500 395.0
7.60500 525.0
7.61500 563.0
7.62500 684.0
7.63500 992.0
7.64500 1377.0
7.65500 2508.0
7.66500 4969.0
7.67500 10608.0
7.68500 19282.0
7.69500 28656.0
7.70500 34612.0
7.71500 33186.0
7.72500 25876.0
7.73500 18311.0
7.74500 11371.0
7.75500 6824.0
7.76500 4100.0
7.77500 2373.0
7.78500 1527.0
7.79500 1087.0
7.80500 729.0
7.81500 635.0
7.82500 462.0
7.83500 390.0
7.84500 385.0
7.85500 396.0
7.86500 343.0
7.87500 265.0
7.88500 281.0
7.89500 222.0
7.90500 189.0
7.91500 178.0
7.92500 165.0
7.93500 163.0
7.94500 160.0
7.95500 121.0
7.96500 138.0
7.97500 117.0
7.98500 146.0
7.99500 107.0
8.00500 122.0
8.01500 161.0
8.02500 211.0
8.03500 143.0
8.04500 135.0
8.05500 172.0
8.06500 168.0
8.07500 201.0
8.08500 181.0
8.09500 116.0
8.10500 132.0
8.11500 113.0
8.12500 107.0
8.13500 133.0
8.14500 113.0
8.15500 90.0
8.16500 113.0
8.17500 113.0
8.18500 115.0
8.19500 85.0
8.20500 91.0
8.21500 76.0
8.22500 105.0
8.23500 103.0
8.24500 111.0
8.25500 132.0
8.26500 140.0
8.27500 141.0
8.28500 88.0
8.29500 100.0
8.30500 134.0
8.31500 138.0
8.32500 137.0
8.33500 118.0
8.34500 135.0
8.35500 140.0
8.36500 124.0
8.37500 112.0
8.38500 129.0
8.39500 114.0
8.40500 139.0
8.41500 106.0
8.42500 112.0
8.43500 103.0
8.44500 109.0
8.45500 106.0
8.46500 138.0
8.47500 138.0
8.48500 157.0
8.49500 145.0
8.50500 171.0
8.51500 139.0
8.52500 213.0
8.53500 145.0
8.54500 168.0
8.55500 207.0
8.56500 189.0
8.57500 204.0
8.58500 206.0
8.59500 241.0
8.60500 270.0
8.61500 207.0
8.62500 165.0
8.63500 149.0
8.64500 136.0
8.65500 170.0
8.66500 153.0
8.67500 169.0
8.68500 149.0
8.69500 145.0
8.70500 148.0
8.71500 139.0
8.72500 172.0
8.73500 203.0
8.74500 188.0
8.75500 169.0
8.76500 123.0
8.77500 107.0
8.78500 121.0
8.79500 162.0
8.80500 125.0
8.81500 137.0
8.82500 119.0
8.83500 127.0
8.84500 140.0
8.85500 129.0
8.86500 112.0
8.87500 143.0
8.88500 166.0
8.89500 210.0
8.90500 172.0
8.91500 186.0
8.92500 172.0
8.93500 172.0
8.94500 196.0
8.95500 155.0
8.96500 166.0
8.97500 161.0
8.98500 189.0
8.99500 212.0
9.00500 194.0
9.01500 226.0
9.02500 190.0
9.03500 202.0
9.04500 165.0
9.05500 177.0
9.06500 142.0
9.07500 134.0
9.08500 174.0
9.09500 188.0
9.10500 139.0
9.11500 217.0
9.12500 254.0
9.13500 420.0
9.14500 263.0
9.15500 247.0
9.16500 243.0
9.17500 232.0
9.18500 267.0
9.19500 275.0
9.20500 283.0
9.21500 285.0
9.22500 303.0
9.23500 304.0
9.24500 295.0
9.25500 296.0
9.26500 302.0
9.27500 355.0
9.28500 252.0
9.29500 195.0
9.30500 174.0
9.31500 200.0
9.32500 242.0
9.33500 258.0
9.34500 275.0
9.35500 241.0
9.36500 221.0
9.37500 287.0
9.38500 388.0
9.39500 382.0
9.40500 380.0
9.41500 386.0
9.42500 299.0
9.43500 173.0
9.44500 220.0
9.45500 184.0
9.46500 310.0
9.47500 242.0
9.48500 254.0
9.49500 197.0
9.50500 246.0
9.51500 310.0
9.52500 278.0
9.53500 308.0
9.54500 244.0
9.55500 288.0
9.56500 285.0
9.57500 433.0
9.58500 721.0
9.59500 1196.0
9.60500 1694.0
9.61500 2094.0
9.62500 2197.0
9.63500 2067.0
9.64500 1818.0
9.65500 1272.0
9.66500 964.0
9.67500 724.0
9.68500 514.0
9.69500 393.0
9.70500 329.0
9.71500 241.0
9.72500 244.0
9.73500 217.0
9.74500 193.0
9.75500 186.0
9.76500 185.0
9.77500 144.0
9.78500 143.0
9.79500 168.0
9.80500 115.0
9.81500 124.0
9.82500 152.0
9.83500 189.0
9.84500 126.0
9.85500 198.0
9.86500 148.0
9.87500 145.0
9.88500 165.0
9.89500 109.0
9.90500 142.0
9.91500 202.0
9.92500 257.0
9.93500 196.0
9.94500 240.0
9.95500 189.0
9.96500 134.0
9.97500 143.0
9.98500 131.0
9.99500 130.0
10.00500 95.0
10.01500 215.0
10.02500 170.0
10.03500 166.0
10.04500 130.0
10.05500 139.0
10.06500 141.0
10.07500 125.0
10.08500 162.0
10.09500 187.0
10.10500 134.0
10.11500 128.0
10.12500 123.0
10.13500 128.0
10.14500 131.0
10.15500 155.0
10.16500 130.0
10.17500 153.0
10.18500 128.0
10.19500 190.0
10.20500 178.0
10.21500 173.0
10.22500 188.0
10.23500 207.0
10.24500 173.0
10.25500 151.0
10.26500 129.0
10.27500 115.0
10.28500 93.0
10.29500 133.0
10.30500 99.0
10.31500 188.0
10.32500 150.0
10.33500 135.0
10.34500 201.0
10.35500 194.0
10.36500 160.0
10.37500 112.0
10.38500 148.0
10.39500 197.0
10.40500 161.0
10.41500 163.0
10.42500 92.0
10.43500 102.0
10.44500 123.0
10.45500 130.0
10.46500 98.0
10.47500 69.0
10.48500 86.0
10.49500 120.0
10.50500 120.0
10.51500 125.0
10.52500 136.0
10.53500 144.0
10.54500 129.0
10.55500 140.0
10.56500 121.0
10.57500 114.0
10.58500 110.0
10.59500 140.0
10.60500 194.0
10.61500 184.0
10.62500 140.0
10.63500 169.0
10.64500 213.0
10.65500 102.0
10.66500 124.0
10.67500 130.0
10.68500 136.0
10.69500 162.0
10.70500 194.0
10.71500 172.0
10.72500 183.0
10.73500 145.0
10.74500 160.0
10.75500 137.0
10.76500 182.0
10.77500 158.0
10.78500 137.0
10.79500 202.0
10.80500 132.0
10.81500 142.0
10.82500 115.0
10.83500 96.0
10.84500 118.0
10.85500 85.0
10.86500 75.0
10.87500 101.0
10.88500 90.0
10.89500 92.0
10.90500 122.0
10.91500 139.0
10.92500 129.0
10.93500 110.0
10.94500 129.0
10.95500 122.0
10.96500 139.0
10.97500 135.0
10.98500 117.0
10.99500 96.0
11.00500 108.0
11.01500 119.0
11.02500 168.0
11.03500 148.0
11.04500 164.0
11.05500 184.0
11.06500 127.0
11.07500 144.0
11.08500 114.0
11.09500 105.0
11.10500 119.0
11.11500 84.0
11.12500 110.0
11.13500 101.0
11.14500 120.0
11.15500 105.0
11.16500 115.0
11.17500 153.0
11.18500 130.0
11.19500 174.0
11.20500 155.0
11.21500 184.0
11.22500 148.0
11.23500 175.0
11.24500 135.0
11.25500 146.0
11.26500 186.0
11.27500 154.0
11.28500 152.0
11.29500 100.0
11.30500 125.0
11.31500 106.0
11.32500 100.0
11.33500 74.0
11.34500 86.0
11.35500 72.0
11.36500 58.0
11.37500 64.0
11.38500 86.0
11.39500 101.0
11.40500 111.0
11.41500 73.0
11.42500 98.0
11.43500 103.0
11.44500 103.0
11.45500 98.0
11.46500 125.0
11.47500 125.0
11.48500 158.0
11.49500 210.0
11.50500 346.0
11.51500 536.0
11.52500 731.0
11.53500 860.0
11.54500 970.0
11.55500 873.0
11.56500 852.0
11.57500 636.0
11.58500 545.0
11.59500 333.0
11.60500 283.0
11.61500 251.0
11.62500 185.0
11.63500 154.0
11.64500 130.0
11.65500 93.0
11.66500 94.0
11.67500 88.0
11.68500 88.0
11.69500 85.0
11.70500 93.0
11.71500 91.0
11.72500 92.0
11.73500 99.0
11.74500 88.0
11.75500 108.0
11.76500 98.0
11.77500 94.0
11.78500 76.0
11.79500 96.0
11.80500 76.0
11.81500 82.0
11.82500 120.0
11.83500 128.0
11.84500 105.0
11.85500 117.0
11.86500 97.0
11.87500 144.0
11.88500 131.0
11.89500 107.0
11.90500 162.0
11.91500 97.0
11.92500 107.0
11.93500 114.0
11.94500 125.0
11.95500 131.0
11.96500 197.0
11.97500 233.0
11.98500 184.0
11.99500 149.0
12.00500 203.0
12.01500 170.0
12.02500 184.0
12.03500 172.0
12.04500 146.0
12.05500 188.0
12.06500 167.0
12.07500 163.0
12.08500 249.0
12.09500 170.0
12.10500 158.0
12.11500 160.0
12.12500 196.0
12.13500 182.0
12.14500 147.0
12.15500 132.0
12.16500 198.0
12.17500 202.0
12.18500 237.0
12.19500 251.0
12.20500 184.0
12.21500 185.0
12.22500 148.0
12.23500 142.0
12.24500 100.0
12.25500 107.0
12.26500 117.0
12.27500 108.0
12.28500 108.0
12.29500 116.0
12.30500 80.0
12.31500 93.0
12.32500 119.0
12.33500 127.0
12.34500 160.0
12.35500 166.0
12.36500 170.0
12.37500 178.0
12.38500 170.0
12.39500 195.0
12.40500 163.0
12.41500 127.0
12.42500 145.0
12.43500 127.0
12.44500 146.0
12.45500 165.0
12.46500 166.0
12.47500 147.0
12.48500 132.0
12.49500 173.0
12.50500 136.0
12.51500 125.0
12.52500 121.0
12.53500 90.0
12.54500 120.0
12.55500 97.0
12.56500 126.0
12.57500 165.0
12.58500 135.0
12.59500 105.0
12.60500 85.0
12.61500 136.0
12.62500 111.0
12.63500 118.0
12.64500 167.0
12.65500 178.0
12.66500 136.0
12.67500 116.0
12.68500 109.0
12.69500 110.0
12.70500 136.0
12.71500 127.0
12.72500 146.0
12.73500 180.0
12.74500 171.0
12.75500 125.0
12.76500 144.0
12.77500 128.0
12.78500 132.0
12.79500 108.0
12.80500 123.0
12.81500 93.0
12.82500 101.0
12.83500 86.0
12.84500 65.0
12.85500 82.0
12.86500 103.0
12.87500 142.0
12.88500 120.0
12.89500 137.0
12.90500 86.0
12.91500 82.0
12.92500 102.0
12.93500 104.0
12.94500 178.0
12.95500 345.0
12.96500 283.0
12.97500 375.0
12.98500 321.0
12.99500 253.0
13.00500 212.0
13.01500 244.0
13.02500 215.0
13.03500 192.0
13.04500 187.0
13.05500 194.0
13.06500 162.0
13.07500 168.0
13.08500 206.0
13.09500 200.0
13.10500 225.0
13.11500 181.0
13.12500 167.0
13.13500 151.0
13.14500 173.0
13.15500 137.0
13.16500 152.0
13.17500 148.0
13.18500 156.0
13.19500 125.0
13.20500 125.0
13.21500 144.0
13.22500 180.0
13.23500 195.0
13.24500 166.0
13.25500 150.0
13.26500 165.0
13.27500 176.0
13.28500 165.0
13.29500 134.0
13.30500 129.0
13.31500 205.0
13.32500 197.0
13.33500 237.0
13.34500 260.0
13.35500 292.0
13.36500 442.0
13.37500 345.0
13.38500 308.0
13.39500 344.0
13.40500 336.0
13.41500 330.0
13.42500 369.0
13.43500 448.0
13.44500 407.0
13.45500 419.0
13.46500 424.0
13.47500 460.0
13.48500 411.0
13.49500 417.0
13.50500 320.0
13.51500 280.0
13.52500 324.0
13.53500 346.0
13.54500 448.0
13.55500 521.0
13.56500 373.0
13.57500 266.0
13.58500 248.0
13.59500 161.0
13.60500 281.0
13.61500 309.0
13.62500 343.0
13.63500 298.0
13.64500 376.0
13.65500 300.0
13.66500 200.0
13.67500 237.0
13.68500 184.0
13.69500 224.0
13.70500 179.0
13.71500 140.0
13.72500 120.0
13.73500 143.0
13.74500 160.0
13.75500 112.0
13.76500 123.0
13.77500 134.0
13.78500 119.0
13.79500 138.0
13.80500 123.0
13.81500 125.0
13.82500 167.0
13.83500 169.0
13.84500 201.0
13.85500 187.0
13.86500 211.0
13.87500 232.0
13.88500 216.0
13.89500 177.0
13.90500 173.0
13.91500 154.0
13.92500 166.0
13.93500 159.0
13.94500 150.0
13.95500 185.0
13.96500 182.0
13.97500 133.0
13.98500 149.0
13.99500 128.0
