0.01000 6800042.0
0.02000 6420556.0
0.03000 5056398.0
0.04000 3539102.0
0.05000 2099552.0
0.06000 1152410.0
0.07000 825178.0
0.08000 835182.0
0.09000 938996.0
0.10000 1038534.0
0.11000 1140317.0
0.12000 1265311.0
0.13000 1335704.0
0.14000 1444636.0
0.15000 1541991.0
0.16000 1626410.0
0.17000 1735982.0
0.18000 1823107.0
0.19000 1914260.0
0.20000 1999312.0
0.21000 2078641.0
0.22000 2179136.0
0.23000 2269273.0
0.24000 2349973.0
0.25000 2431764.0
0.26000 2486573.0
0.27000 2584653.0
0.28000 2661838.0
0.29000 2727764.0
0.30000 2818435.0
0.31000 2857396.0
0.32000 2954093.0
0.33000 3032840.0
0.34000 3089988.0
0.35000 3178304.0
0.36000 3228128.0
0.37000 3293404.0
0.38000 3393522.0
0.39000 3441311.0
0.40000 3501081.0
0.41000 3536478.0
0.42000 3591291.0
0.43000 3667000.0
0.44000 3681803.0
0.45000 3739598.0
0.46000 3787722.0
0.47000 3861792.0
0.48000 3922938.0
0.49000 3931587.0
0.50000 3980214.0
0.51000 4002970.0
0.52000 4035937.0
0.53000 4063128.0
0.54000 4089532.0
0.55000 4114864.0
0.56000 4131309.0
0.57000 4123062.0
0.58000 4170265.0
0.59000 4187660.0
0.60000 4174533.0
0.61000 4185118.0
0.62000 4173139.0
0.63000 4208503.0
0.64000 4179063.0
0.65000 4115773.0
0.66000 4100352.0
0.67000 4015368.0
0.68000 3930893.0
0.69000 3762810.0
0.70000 3474570.0
0.71000 3109395.0
0.72000 2648635.0
0.73000 2193990.0
0.74000 1818385.0
0.75000 1546018.0
0.76000 1336474.0
0.77000 1165452.0
0.78000 1036110.0
0.79000 931717.0
0.80000 840197.0
0.81000 760707.0
0.82000 686065.0
0.83000 625503.0
0.84000 579065.0
0.85000 539136.0
0.86000 502357.0
0.87000 466085.0
0.88000 435546.0
0.89000 406800.0
0.90000 381338.0
0.91000 362374.0
0.92000 344300.0
0.93000 324885.0
0.94000 304026.0
0.95000 286502.0
0.96000 272102.0
0.97000 265386.0
0.98000 259831.0
0.99000 246997.0
1.00000 234771.0
1.01000 222063.0
1.02000 213398.0
1.03000 201125.0
1.04000 193564.0
1.05000 191884.0
1.06000 188948.0
1.07000 187473.0
1.08000 178952.0
1.09000 171300.0
1.10000 164275.0
1.11000 154748.0
1.12000 149584.0
1.13000 147200.0
1.14000 149160.0
1.15000 151847.0
1.16000 149045.0
1.17000 143794.0
1.18000 140628.0
1.19000 138452.0
1.20000 133838.0
1.21000 132645.0
1.22000 138197.0
1.23000 143232.0
1.24000 146487.0
1.25000 147081.0
1.26000 146416.0
1.27000 151031.0
1.28000 158232.0
1.29000 166074.0
1.30000 181229.0
1.31000 211432.0
1.32000 253024.0
1.33000 299366.0
1.34000 357772.0
1.35000 448851.0
1.36000 596280.0
1.37000 850887.0
1.38000 1277576.0
1.39000 1780714.0
1.40000 2202800.0
1.41000 2338672.0
1.42000 2064989.0
1.43000 1442824.0
1.44000 820867.0
1.45000 482472.0
1.46000 320483.0
1.47000 228163.0
1.48000 179996.0
1.49000 142315.0
1.50000 118515.0
1.51000 101838.0
1.52000 82187.0
1.53000 68531.0
1.54000 57309.0
1.55000 48935.0
1.56000 44535.0
1.57000 38212.0
1.58000 34072.0
1.59000 30475.0
1.60000 26797.0
1.61000 24478.0
1.62000 20888.0
1.63000 19312.0
1.64000 17695.0
1.65000 15773.0
1.66000 15267.0
1.67000 13497.0
1.68000 12432.0
1.69000 11878.0
1.70000 10792.0
1.71000 10238.0
1.72000 9623.0
1.73000 9275.0
1.74000 9310.0
1.75000 8869.0
1.76000 8423.0
1.77000 8133.0
1.78000 7300.0
1.79000 6983.0
1.80000 6429.0
1.81000 6426.0
1.82000 6215.0
1.83000 6092.0
1.84000 6389.0
1.85000 6016.0
1.86000 5685.0
1.87000 5715.0
1.88000 5265.0
1.89000 4966.0
1.90000 4350.0
1.91000 4233.0
1.92000 4236.0
1.93000 4208.0
1.94000 4285.0
1.95000 4113.0
1.96000 3958.0
1.97000 4044.0
1.98000 3978.0
1.99000 3642.0
2.00000 3301.0
2.01000 3127.0
2.02000 3138.0
2.03000 3061.0
2.04000 3041.0
2.05000 2996.0
2.06000 2764.0
2.07000 2723.0
2.08000 2852.0
2.09000 2656.0
2.10000 2425.0
2.11000 2251.0
2.12000 2247.0
2.13000 2321.0
2.14000 2336.0
2.15000 2380.0
2.16000 2387.0
2.17000 2216.0
2.18000 2379.0
2.19000 2048.0
2.20000 1888.0
2.21000 1687.0
2.22000 1550.0
2.23000 1674.0
2.24000 1685.0
2.25000 1850.0
2.26000 1778.0
2.27000 1670.0
2.28000 1691.0
2.29000 1587.0
2.30000 1497.0
2.31000 1340.0
2.32000 1177.0
2.33000 1364.0
2.34000 1455.0
2.35000 1448.0
2.36000 1319.0
2.37000 1278.0
2.38000 1268.0
2.39000 1186.0
2.40000 1232.0
2.41000 1246.0
2.42000 1344.0
2.43000 1738.0
2.44000 2243.0
2.45000 2556.0
2.46000 3026.0
2.47000 4077.0
2.48000 5707.0
2.49000 8303.0
2.50000 15111.0
2.51000 29275.0
2.52000 48267.0
2.53000 60535.0
2.54000 54561.0
2.55000 36267.0
2.56000 22474.0
2.57000 15691.0
2.58000 11893.0
2.59000 10065.0
2.60000 8526.0
2.61000 7178.0
2.62000 6256.0
2.63000 5278.0
2.64000 4495.0
2.65000 3802.0
2.66000 3574.0
2.67000 3363.0
2.68000 2973.0
2.69000 2752.0
2.70000 2436.0
2.71000 2259.0
2.72000 2052.0
2.73000 2038.0
2.74000 2048.0
2.75000 1841.0
2.76000 1608.0
2.77000 1421.0
2.78000 1349.0
2.79000 1202.0
2.80000 1147.0
2.81000 1010.0
2.82000 980.0
2.83000 991.0
2.84000 1067.0
2.85000 971.0
2.86000 850.0
2.87000 769.0
2.88000 713.0
2.89000 726.0
2.90000 652.0
2.91000 610.0
2.92000 630.0
2.93000 606.0
2.94000 613.0
2.95000 591.0
2.96000 532.0
2.97000 473.0
2.98000 433.0
2.99000 454.0
3.00000 544.0
3.01000 526.0
3.02000 444.0
3.03000 418.0
3.04000 379.0
3.05000 361.0
3.06000 383.0
3.07000 391.0
3.08000 351.0
3.09000 316.0
3.10000 288.0
3.11000 283.0
3.12000 279.0
3.13000 294.0
3.14000 331.0
3.15000 325.0
3.16000 362.0
3.17000 364.0
3.18000 337.0
3.19000 272.0
3.20000 259.0
3.21000 246.0
3.22000 206.0
3.23000 223.0
3.24000 186.0
3.25000 242.0
3.26000 276.0
3.27000 294.0
3.28000 274.0
3.29000 304.0
3.30000 228.0
3.31000 239.0
3.32000 207.0
3.33000 200.0
3.34000 201.0
3.35000 211.0
3.36000 218.0
3.37000 239.0
3.38000 247.0
3.39000 233.0
3.40000 233.0
3.41000 191.0
3.42000 174.0
3.43000 171.0
3.44000 164.0
3.45000 151.0
3.46000 163.0
3.47000 189.0
3.48000 193.0
3.49000 213.0
3.50000 182.0
3.51000 192.0
3.52000 168.0
3.53000 182.0
3.54000 170.0
3.55000 214.0
3.56000 192.0
3.57000 246.0
3.58000 263.0
3.59000 340.0
3.60000 425.0
3.61000 452.0
3.62000 502.0
3.63000 589.0
3.64000 698.0
3.65000 939.0
3.66000 1181.0
3.67000 1774.0
3.68000 3147.0
3.69000 5615.0
3.70000 8123.0
3.71000 9012.0
3.72000 8193.0
3.73000 5750.0
3.74000 3896.0
3.75000 3045.0
3.76000 2590.0
3.77000 2176.0
3.78000 1777.0
3.79000 1369.0
3.80000 1098.0
3.81000 848.0
3.82000 776.0
3.83000 633.0
3.84000 577.0
3.85000 594.0
3.86000 518.0
3.87000 417.0
3.88000 385.0
3.89000 324.0
3.90000 303.0
3.91000 233.0
3.92000 245.0
3.93000 200.0
3.94000 221.0
3.95000 213.0
3.96000 196.0
3.97000 170.0
3.98000 196.0
3.99000 180.0
4.00000 181.0
4.01000 170.0
4.02000 156.0
4.03000 161.0
4.04000 98.0
4.05000 127.0
4.06000 108.0
4.07000 95.0
4.08000 113.0
4.09000 111.0
4.10000 115.0
4.11000 90.0
4.12000 98.0
4.13000 105.0
4.14000 97.0
4.15000 83.0
4.16000 93.0
4.17000 92.0
4.18000 101.0
4.19000 99.0
4.20000 71.0
4.21000 83.0
4.22000 79.0
4.23000 74.0
4.24000 86.0
4.25000 81.0
4.26000 73.0
4.27000 79.0
4.28000 55.0
4.29000 71.0
4.30000 61.0
4.31000 58.0
4.32000 89.0
4.33000 61.0
4.34000 61.0
4.35000 41.0
4.36000 53.0
4.37000 59.0
4.38000 29.0
4.39000 74.0
4.40000 61.0
4.41000 56.0
4.42000 65.0
4.43000 39.0
4.44000 42.0
4.45000 37.0
4.46000 51.0
4.47000 45.0
4.48000 46.0
4.49000 52.0
4.50000 47.0
4.51000 52.0
4.52000 54.0
4.53000 38.0
4.54000 57.0
4.55000 50.0
4.56000 36.0
4.57000 57.0
4.58000 43.0
4.59000 47.0
4.60000 48.0
4.61000 41.0
4.62000 27.0
4.63000 36.0
4.64000 34.0
4.65000 41.0
4.66000 50.0
4.67000 41.0
4.68000 39.0
4.69000 26.0
4.70000 28.0
4.71000 42.0
4.72000 39.0
4.73000 48.0
4.74000 30.0
4.75000 31.0
4.76000 30.0
4.77000 27.0
4.78000 28.0
4.79000 29.0
4.80000 32.0
4.81000 43.0
4.82000 28.0
4.83000 56.0
4.84000 55.0
4.85000 99.0
4.86000 125.0
4.87000 240.0
4.88000 399.0
4.89000 680.0
4.90000 924.0
4.91000 983.0
4.92000 811.0
4.93000 588.0
4.94000 462.0
4.95000 361.0
4.96000 365.0
4.97000 269.0
4.98000 265.0
4.99000 254.0
5.00000 245.0
5.01000 195.0
5.02000 185.0
5.03000 175.0
5.04000 164.0
5.05000 152.0
5.06000 134.0
5.07000 130.0
5.08000 111.0
5.09000 119.0
5.10000 95.0
5.11000 101.0
5.12000 94.0
5.13000 81.0
5.14000 75.0
5.15000 71.0
5.16000 81.0
5.17000 100.0
5.18000 72.0
5.19000 70.0
5.20000 69.0
5.21000 77.0
5.22000 75.0
5.23000 57.0
5.24000 64.0
5.25000 67.0
5.26000 54.0
5.27000 51.0
5.28000 52.0
5.29000 53.0
5.30000 59.0
5.31000 43.0
5.32000 53.0
5.33000 58.0
5.34000 54.0
5.35000 57.0
5.36000 38.0
5.37000 50.0
5.38000 44.0
5.39000 43.0
5.40000 44.0
5.41000 25.0
5.42000 32.0
5.43000 46.0
5.44000 40.0
5.45000 38.0
5.46000 40.0
5.47000 45.0
5.48000 46.0
5.49000 48.0
5.50000 39.0
5.51000 30.0
5.52000 33.0
5.53000 28.0
5.54000 27.0
5.55000 29.0
5.56000 30.0
5.57000 36.0
5.58000 32.0
5.59000 20.0
5.60000 22.0
5.61000 29.0
5.62000 23.0
5.63000 30.0
5.64000 33.0
5.65000 45.0
5.66000 46.0
5.67000 38.0
5.68000 30.0
5.69000 28.0
5.70000 30.0
5.71000 26.0
5.72000 27.0
5.73000 32.0
5.74000 20.0
5.75000 31.0
5.76000 34.0
5.77000 24.0
5.78000 32.0
5.79000 33.0
5.80000 26.0
5.81000 23.0
5.82000 36.0
5.83000 43.0
5.84000 25.0
5.85000 34.0
5.86000 40.0
5.87000 24.0
5.88000 30.0
5.89000 40.0
5.90000 33.0
5.91000 35.0
5.92000 36.0
5.93000 26.0
5.94000 37.0
5.95000 23.0
5.96000 20.0
5.97000 37.0
5.98000 28.0
5.99000 30.0
6.00000 34.0
6.01000 35.0
6.02000 34.0
6.03000 30.0
6.04000 36.0
6.05000 25.0
6.06000 40.0
6.07000 37.0
6.08000 39.0
6.09000 31.0
6.10000 26.0
6.11000 21.0
6.12000 27.0
6.13000 39.0
6.14000 19.0
6.15000 24.0
6.16000 25.0
6.17000 16.0
6.18000 27.0
6.19000 17.0
6.20000 21.0
6.21000 26.0
6.22000 25.0
6.23000 15.0
6.24000 28.0
6.25000 20.0
6.26000 25.0
6.27000 15.0
6.28000 26.0
6.29000 30.0
6.30000 34.0
6.31000 21.0
6.32000 22.0
6.33000 30.0
6.34000 17.0
6.35000 19.0
6.36000 17.0
6.37000 32.0
6.38000 22.0
6.39000 18.0
6.40000 19.0
6.41000 28.0
6.42000 26.0
6.43000 23.0
6.44000 28.0
6.45000 36.0
6.46000 22.0
6.47000 23.0
6.48000 22.0
6.49000 20.0
6.50000 21.0
6.51000 15.0
6.52000 21.0
6.53000 15.0
6.54000 20.0
6.55000 14.0
6.56000 20.0
6.57000 20.0
6.58000 18.0
6.59000 16.0
6.60000 12.0
6.61000 16.0
6.62000 13.0
6.63000 18.0
6.64000 13.0
6.65000 21.0
6.66000 14.0
6.67000 19.0
6.68000 16.0
6.69000 13.0
6.70000 20.0
6.71000 18.0
6.72000 13.0
6.73000 14.0
6.74000 22.0
6.75000 24.0
6.76000 28.0
6.77000 39.0
6.78000 21.0
6.79000 30.0
6.80000 15.0
6.81000 30.0
6.82000 13.0
6.83000 29.0
6.84000 31.0
6.85000 32.0
6.86000 23.0
6.87000 17.0
6.88000 10.0
6.89000 24.0
6.90000 20.0
6.91000 27.0
6.92000 22.0
6.93000 18.0
6.94000 26.0
6.95000 18.0
6.96000 26.0
6.97000 18.0
6.98000 19.0
6.99000 10.0
7.00000 15.0
7.01000 19.0
7.02000 13.0
7.03000 13.0
7.04000 9.0
7.05000 26.0
7.06000 14.0
7.07000 15.0
7.08000 16.0
7.09000 10.0
7.10000 4.0
7.11000 11.0
7.12000 10.0
7.13000 21.0
7.14000 12.0
7.15000 11.0
7.16000 8.0
7.17000 13.0
7.18000 11.0
7.19000 18.0
7.20000 15.0
7.21000 15.0
7.22000 21.0
7.23000 12.0
7.24000 20.0
7.25000 12.0
7.26000 14.0
7.27000 19.0
7.28000 34.0
7.29000 60.0
7.30000 77.0
7.31000 73.0
7.32000 80.0
7.33000 60.0
7.34000 62.0
7.35000 51.0
7.36000 48.0
7.37000 45.0
7.38000 45.0
7.39000 37.0
7.40000 54.0
7.41000 26.0
7.42000 39.0
7.43000 19.0
7.44000 25.0
7.45000 25.0
7.46000 28.0
7.47000 29.0
7.48000 21.0
7.49000 27.0
7.50000 18.0
7.51000 23.0
7.52000 19.0
7.53000 10.0
7.54000 13.0
7.55000 10.0
7.56000 18.0
7.57000 13.0
7.58000 13.0
7.59000 15.0
7.60000 16.0
7.61000 14.0
7.62000 20.0
7.63000 11.0
7.64000 17.0
7.65000 17.0
7.66000 21.0
7.67000 22.0
7.68000 17.0
7.69000 15.0
7.70000 13.0
7.71000 19.0
7.72000 17.0
7.73000 11.0
7.74000 23.0
7.75000 11.0
7.76000 15.0
7.77000 19.0
7.78000 6.0
7.79000 16.0
7.80000 12.0
7.81000 4.0
7.82000 14.0
7.83000 16.0
7.84000 10.0
7.85000 11.0
7.86000 11.0
7.87000 15.0
7.88000 23.0
7.89000 7.0
7.90000 7.0
7.91000 15.0
7.92000 11.0
7.93000 11.0
7.94000 12.0
7.95000 11.0
7.96000 15.0
7.97000 12.0
7.98000 9.0
7.99000 8.0
8.00000 10.0
8.01000 11.0
8.02000 6.0
8.03000 11.0
8.04000 13.0
8.05000 16.0
8.06000 11.0
8.07000 16.0
8.08000 16.0
8.09000 16.0
8.10000 16.0
8.11000 15.0
8.12000 14.0
8.13000 7.0
8.14000 8.0
8.15000 14.0
8.16000 12.0
8.17000 6.0
8.18000 6.0
8.19000 10.0
8.20000 15.0
8.21000 9.0
8.22000 6.0
8.23000 11.0
8.24000 10.0
8.25000 20.0
8.26000 8.0
8.27000 6.0
8.28000 21.0
8.29000 11.0
8.30000 12.0
8.31000 15.0
8.32000 5.0
8.33000 9.0
8.34000 12.0
8.35000 20.0
8.36000 15.0
8.37000 5.0
8.38000 14.0
8.39000 16.0
8.40000 7.0
