0.00500 35082260.0
0.01500 38768496.0
0.02500 33794800.0
0.03500 26411404.0
0.04500 18368590.0
0.05500 11038132.0
0.06500 6444571.0
0.07500 5135018.0
0.08500 5369819.0
0.09500 6005940.0
0.10500 6677001.0
0.11500 7321645.0
0.12500 7962734.0
0.13500 8649325.0
0.14500 9311811.0
0.15500 9979202.0
0.16500 10619075.0
0.17500 11235876.0
0.18500 11840346.0
0.19500 12441539.0
0.20500 13097218.0
0.21500 13686920.0
0.22500 14325053.0
0.23500 14840670.0
0.24500 15439945.0
0.25500 16079789.0
0.26500 16715464.0
0.27500 17242932.0
0.28500 17783092.0
0.29500 18322388.0
0.30500 18757768.0
0.31500 19422440.0
0.32500 19874132.0
0.33500 20412476.0
0.34500 20952000.0
0.35500 21495944.0
0.36500 22072932.0
0.37500 22507542.0
0.38500 23099568.0
0.39500 23593034.0
0.40500 23981470.0
0.41500 24367756.0
0.42500 24775028.0
0.43500 25187636.0
0.44500 25424884.0
0.45500 25770282.0
0.46500 26107728.0
0.47500 26549212.0
0.48500 26891232.0
0.49500 27203784.0
0.50500 27599724.0
0.51500 27794772.0
0.52500 27987776.0
0.53500 28201312.0
0.54500 28553434.0
0.55500 28927220.0
0.56500 29088686.0
0.57500 29204708.0
0.58500 29425208.0
0.59500 29334532.0
0.60500 29559708.0
0.61500 29574148.0
0.62500 29571216.0
0.63500 29598840.0
0.64500 29441974.0
0.65500 29149104.0
0.66500 28899020.0
0.67500 28297668.0
0.68500 27423728.0
0.69500 26023562.0
0.70500 23989968.0
0.71500 21187222.0
0.72500 18057564.0
0.73500 15052386.0
0.74500 12603635.0
0.75500 10648783.0
0.76500 9185247.0
0.77500 8020348.0
0.78500 7057399.0
0.79500 6308595.0
0.80500 5635140.0
0.81500 5122702.0
0.82500 4639156.0
0.83500 4203400.0
0.84500 3878233.0
0.85500 3550220.0
0.86500 3299677.0
0.87500 3068531.0
0.88500 2838744.0
0.89500 2642965.0
0.90500 2439588.0
0.91500 2277838.0
0.92500 2147970.0
0.93500 1999515.0
0.94500 1888228.0
0.95500 1774728.0
0.96500 1637394.0
0.97500 1539863.0
0.98500 1466940.0
0.99500 1372919.0
1.00500 1273856.0
1.01500 1228229.0
1.02500 1157491.0
1.03500 1067172.0
1.04500 1032441.0
1.05500 1012268.0
1.06500 947463.0
1.07500 883027.0
1.08500 863212.0
1.09500 835211.0
1.10500 765949.0
1.11500 716172.0
1.12500 715418.0
1.13500 687371.0
1.14500 626637.0
1.15500 608616.0
1.16500 618139.0
1.17500 586586.0
1.18500 523409.0
1.19500 502377.0
1.20500 516774.0
1.21500 488105.0
1.22500 434539.0
1.23500 416311.0
1.24500 431859.0
1.25500 418000.0
1.26500 368392.0
1.27500 353643.0
1.28500 368798.0
1.29500 360405.0
1.30500 322775.0
1.31500 302002.0
1.32500 319187.0
1.33500 321030.0
1.34500 282923.0
1.35500 261137.0
1.36500 272866.0
1.37500 280407.0
1.38500 253157.0
1.39500 223300.0
1.40500 229100.0
1.41500 240748.0
1.42500 224622.0
1.43500 196095.0
1.44500 193139.0
1.45500 209628.0
1.46500 204106.0
1.47500 174655.0
1.48500 162286.0
1.49500 175158.0
1.50500 182124.0
1.51500 162628.0
1.52500 142528.0
1.53500 152399.0
1.54500 163188.0
1.55500 153613.0
1.56500 130932.0
1.57500 126415.0
1.58500 138892.0
1.59500 139337.0
1.60500 122633.0
1.61500 108759.0
1.62500 114755.0
1.63500 123046.0
1.64500 112703.0
1.65500 95039.0
1.66500 96043.0
1.67500 107723.0
1.68500 108704.0
1.69500 94039.0
1.70500 85433.0
1.71500 93617.0
1.72500 102590.0
1.73500 93424.0
1.74500 78252.0
1.75500 75861.0
1.76500 85585.0
1.77500 87650.0
1.78500 76102.0
1.79500 66472.0
1.80500 72260.0
1.81500 81011.0
1.82500 75902.0
1.83500 63545.0
1.84500 60611.0
1.85500 66305.0
1.86500 69052.0
1.87500 60879.0
1.88500 50965.0
1.89500 53124.0
1.90500 59879.0
1.91500 58179.0
1.92500 49944.0
1.93500 46619.0
1.94500 53131.0
1.95500 58254.0
1.96500 52815.0
1.97500 44395.0
1.98500 43946.0
1.99500 50692.0
2.00500 52396.0
2.01500 45137.0
2.02500 38919.0
2.03500 41878.0
2.04500 48997.0
2.05500 48465.0
2.06500 39844.0
2.07500 36875.0
2.08500 41558.0
2.09500 46173.0
2.10500 42919.0
2.11500 35105.0
2.12500 34175.0
2.13500 39713.0
2.14500 42656.0
2.15500 37446.0
2.16500 31777.0
2.17500 33191.0
2.18500 39306.0
2.19500 39528.0
2.20500 34071.0
2.21500 29659.0
2.22500 33306.0
2.23500 38396.0
2.24500 37196.0
2.25500 31004.0
2.26500 28721.0
2.27500 33880.0
2.28500 38395.0
2.29500 35410.0
2.30500 29531.0
2.31500 29886.0
2.32500 36406.0
2.33500 40536.0
2.34500 34907.0
2.35500 29235.0
2.36500 30732.0
2.37500 37565.0
2.38500 40428.0
2.39500 34923.0
2.40500 32141.0
2.41500 37634.0
2.42500 45420.0
2.43500 46782.0
2.44500 41261.0
2.45500 41079.0
2.46500 52608.0
2.47500 64447.0
2.48500 65599.0
2.49500 62253.0
2.50500 72650.0
2.51500 102011.0
2.52500 124942.0
2.53500 139208.0
2.54500 179052.0
2.55500 328373.0
2.56500 637109.0
2.57500 1008127.0
2.58500 1336582.0
2.59500 1444040.0
2.60500 1279273.0
2.61500 947161.0
2.62500 596348.0
2.63500 325661.0
2.64500 182637.0
2.65500 125897.0
2.66500 98185.0
2.67500 75690.0
2.68500 54005.0
2.69500 38912.0
2.70500 32591.0
2.71500 27713.0
2.72500 22674.0
2.73500 17954.0
2.74500 14895.0
2.75500 13098.0
2.76500 11685.0
2.77500 9734.0
2.78500 8598.0
2.79500 7597.0
2.80500 6703.0
2.81500 6260.0
2.82500 5669.0
2.83500 5139.0
2.84500 4857.0
2.85500 4296.0
2.86500 3687.0
2.87500 3445.0
2.88500 3699.0
2.89500 3366.0
2.90500 3078.0
2.91500 2726.0
2.92500 2575.0
2.93500 2706.0
2.94500 2435.0
2.95500 2388.0
2.96500 2179.0
2.97500 2215.0
2.98500 2293.0
2.99500 2006.0
3.00500 1870.0
3.01500 1741.0
3.02500 1731.0
3.03500 1818.0
3.04500 1929.0
3.05500 1628.0
3.06500 1713.0
3.07500 1703.0
3.08500 1613.0
3.09500 1644.0
3.10500 1343.0
3.11500 1235.0
3.12500 1331.0
3.13500 1411.0
3.14500 1385.0
3.15500 1227.0
3.16500 1051.0
3.17500 1174.0
3.18500 1226.0
3.19500 1253.0
3.20500 1267.0
3.21500 1049.0
3.22500 1025.0
3.23500 1110.0
3.24500 1181.0
3.25500 1055.0
3.26500 932.0
3.27500 1371.0
3.28500 1313.0
3.29500 1291.0
3.30500 1202.0
3.31500 1221.0
3.32500 1345.0
3.33500 1388.0
3.34500 1311.0
3.35500 1290.0
3.36500 1368.0
3.37500 1195.0
3.38500 1290.0
3.39500 1122.0
3.40500 937.0
3.41500 930.0
3.42500 1121.0
3.43500 963.0
3.44500 906.0
3.45500 947.0
3.46500 1070.0
3.47500 1123.0
3.48500 1159.0
3.49500 982.0
3.50500 954.0
3.51500 841.0
3.52500 832.0
3.53500 856.0
3.54500 747.0
3.55500 908.0
3.56500 1066.0
3.57500 962.0
3.58500 888.0
3.59500 798.0
3.60500 843.0
3.61500 888.0
3.62500 876.0
3.63500 789.0
3.64500 893.0
3.65500 752.0
3.66500 781.0
3.67500 758.0
3.68500 836.0
3.69500 637.0
3.70500 703.0
3.71500 684.0
3.72500 624.0
3.73500 537.0
3.74500 591.0
3.75500 554.0
3.76500 639.0
3.77500 799.0
3.78500 656.0
3.79500 516.0
3.80500 634.0
3.81500 517.0
3.82500 566.0
3.83500 633.0
3.84500 614.0
3.85500 637.0
3.86500 587.0
3.87500 514.0
3.88500 606.0
3.89500 567.0
3.90500 516.0
3.91500 502.0
3.92500 409.0
3.93500 400.0
3.94500 464.0
3.95500 525.0
3.96500 673.0
3.97500 603.0
3.98500 530.0
3.99500 508.0
4.00500 463.0
4.01500 492.0
4.02500 547.0
4.03500 553.0
4.04500 581.0
4.05500 803.0
4.06500 596.0
4.07500 579.0
4.08500 605.0
4.09500 434.0
4.10500 535.0
4.11500 675.0
4.12500 785.0
4.13500 674.0
4.14500 689.0
4.15500 512.0
4.16500 658.0
4.17500 959.0
4.18500 887.0
4.19500 741.0
4.20500 686.0
4.21500 697.0
4.22500 682.0
4.23500 797.0
4.24500 1086.0
4.25500 789.0
4.26500 867.0
4.27500 805.0
4.28500 704.0
4.29500 443.0
4.30500 631.0
4.31500 551.0
4.32500 741.0
4.33500 648.0
4.34500 789.0
4.35500 843.0
4.36500 804.0
4.37500 877.0
4.38500 782.0
4.39500 591.0
4.40500 674.0
4.41500 713.0
4.42500 744.0
4.43500 723.0
4.44500 657.0
4.45500 625.0
4.46500 867.0
4.47500 640.0
4.48500 744.0
4.49500 580.0
4.50500 731.0
4.51500 708.0
4.52500 627.0
4.53500 684.0
4.54500 808.0
4.55500 608.0
4.56500 612.0
4.57500 610.0
4.58500 780.0
4.59500 619.0
4.60500 485.0
4.61500 387.0
4.62500 503.0
4.63500 439.0
4.64500 538.0
4.65500 744.0
4.66500 677.0
4.67500 627.0
4.68500 693.0
4.69500 917.0
4.70500 1031.0
4.71500 915.0
4.72500 906.0
4.73500 806.0
4.74500 675.0
4.75500 675.0
4.76500 681.0
4.77500 557.0
4.78500 627.0
4.79500 577.0
4.80500 432.0
4.81500 531.0
4.82500 527.0
4.83500 623.0
4.84500 561.0
4.85500 440.0
4.86500 494.0
4.87500 482.0
4.88500 593.0
4.89500 763.0
4.90500 544.0
4.91500 468.0
4.92500 493.0
4.93500 576.0
4.94500 911.0
4.95500 604.0
4.96500 719.0
4.97500 724.0
4.98500 837.0
4.99500 1223.0
5.00500 1586.0
5.01500 2444.0
5.02500 3290.0
5.03500 3786.0
5.04500 3802.0
5.05500 3294.0
5.06500 2539.0
5.07500 1941.0
5.08500 1492.0
5.09500 1302.0
5.10500 1274.0
5.11500 1157.0
5.12500 1163.0
5.13500 879.0
5.14500 742.0
5.15500 915.0
5.16500 896.0
5.17500 818.0
5.18500 796.0
5.19500 760.0
5.20500 649.0
5.21500 582.0
5.22500 700.0
5.23500 907.0
5.24500 947.0
5.25500 752.0
5.26500 813.0
5.27500 598.0
5.28500 759.0
5.29500 880.0
5.30500 940.0
5.31500 748.0
5.32500 713.0
5.33500 773.0
5.34500 827.0
5.35500 548.0
5.36500 563.0
5.37500 430.0
5.38500 461.0
5.39500 447.0
5.40500 490.0
5.41500 510.0
5.42500 347.0
5.43500 408.0
5.44500 365.0
5.45500 352.0
5.46500 368.0
5.47500 409.0
5.48500 366.0
5.49500 358.0
5.50500 487.0
5.51500 536.0
5.52500 506.0
5.53500 547.0
5.54500 478.0
5.55500 529.0
5.56500 532.0
5.57500 606.0
5.58500 588.0
5.59500 579.0
5.60500 535.0
5.61500 715.0
5.62500 617.0
5.63500 612.0
5.64500 540.0
5.65500 439.0
5.66500 402.0
5.67500 488.0
5.68500 440.0
5.69500 468.0
5.70500 597.0
5.71500 496.0
5.72500 408.0
5.73500 483.0
5.74500 427.0
5.75500 388.0
5.76500 416.0
5.77500 356.0
5.78500 382.0
5.79500 382.0
5.80500 696.0
5.81500 751.0
5.82500 687.0
5.83500 755.0
5.84500 1088.0
5.85500 1201.0
5.86500 1272.0
5.87500 1208.0
5.88500 969.0
5.89500 1081.0
5.90500 1271.0
5.91500 1275.0
5.92500 1052.0
5.93500 1032.0
5.94500 1286.0
5.95500 1123.0
5.96500 1098.0
5.97500 719.0
5.98500 699.0
5.99500 714.0
6.00500 806.0
6.01500 709.0
6.02500 673.0
6.03500 730.0
6.04500 635.0
6.05500 619.0
6.06500 685.0
6.07500 698.0
6.08500 677.0
6.09500 675.0
6.10500 699.0
6.11500 751.0
6.12500 636.0
6.13500 914.0
6.14500 865.0
6.15500 1014.0
6.16500 717.0
6.17500 726.0
6.18500 522.0
6.19500 564.0
6.20500 499.0
6.21500 441.0
6.22500 456.0
6.23500 326.0
6.24500 515.0
6.25500 435.0
6.26500 434.0
6.27500 546.0
6.28500 562.0
6.29500 515.0
6.30500 496.0
6.31500 503.0
6.32500 489.0
6.33500 542.0
6.34500 429.0
6.35500 365.0
6.36500 451.0
6.37500 522.0
6.38500 394.0
6.39500 368.0
6.40500 458.0
6.41500 442.0
6.42500 348.0
6.43500 547.0
6.44500 736.0
6.45500 747.0
6.46500 739.0
6.47500 473.0
6.48500 443.0
6.49500 453.0
6.50500 504.0
6.51500 528.0
6.52500 331.0
6.53500 374.0
6.54500 351.0
6.55500 327.0
6.56500 270.0
6.57500 224.0
6.58500 287.0
6.59500 311.0
6.60500 513.0
6.61500 596.0
6.62500 631.0
6.63500 510.0
6.64500 325.0
6.65500 329.0
6.66500 312.0
6.67500 317.0
6.68500 550.0
6.69500 627.0
6.70500 712.0
6.71500 563.0
6.72500 486.0
6.73500 478.0
6.74500 492.0
6.75500 367.0
6.76500 325.0
6.77500 335.0
6.78500 320.0
6.79500 220.0
6.80500 224.0
6.81500 259.0
6.82500 273.0
6.83500 278.0
6.84500 282.0
6.85500 282.0
6.86500 317.0
6.87500 309.0
6.88500 262.0
6.89500 308.0
6.90500 285.0
6.91500 306.0
6.92500 279.0
6.93500 260.0
6.94500 272.0
6.95500 321.0
6.96500 226.0
6.97500 211.0
6.98500 179.0
6.99500 250.0
7.00500 408.0
7.01500 419.0
7.02500 454.0
7.03500 443.0
7.04500 369.0
7.05500 362.0
7.06500 353.0
7.07500 507.0
7.08500 454.0
7.09500 434.0
7.10500 541.0
7.11500 511.0
7.12500 482.0
7.13500 541.0
7.14500 601.0
7.15500 688.0
7.16500 662.0
7.17500 564.0
7.18500 740.0
7.19500 649.0
7.20500 493.0
7.21500 561.0
7.22500 486.0
7.23500 510.0
7.24500 566.0
7.25500 579.0
7.26500 773.0
7.27500 739.0
7.28500 734.0
7.29500 701.0
7.30500 783.0
7.31500 616.0
7.32500 566.0
7.33500 527.0
7.34500 376.0
7.35500 473.0
7.36500 470.0
7.37500 612.0
7.38500 673.0
7.39500 729.0
7.40500 631.0
7.41500 472.0
7.42500 681.0
7.43500 766.0
7.44500 664.0
7.45500 698.0
7.46500 554.0
7.47500 435.0
7.48500 374.0
7.49500 457.0
7.50500 593.0
7.51500 644.0
7.52500 665.0
7.53500 650.0
7.54500 547.0
7.55500 524.0
7.56500 453.0
7.57500 374.0
7.58500 275.0
7.59500 289.0
7.60500 325.0
7.61500 253.0
7.62500 360.0
7.63500 262.0
7.64500 218.0
7.65500 305.0
7.66500 326.0
7.67500 335.0
7.68500 352.0
7.69500 288.0
7.70500 272.0
7.71500 253.0
7.72500 243.0
7.73500 216.0
7.74500 318.0
7.75500 290.0
7.76500 298.0
7.77500 367.0
7.78500 370.0
7.79500 387.0
7.80500 363.0
7.81500 442.0
7.82500 437.0
7.83500 477.0
7.84500 482.0
7.85500 365.0
7.86500 410.0
7.87500 361.0
7.88500 440.0
7.89500 435.0
7.90500 384.0
7.91500 280.0
7.92500 286.0
7.93500 277.0
7.94500 301.0
7.95500 207.0
7.96500 213.0
7.97500 201.0
7.98500 238.0
7.99500 209.0
