0.00500 30730804.0
0.01500 36933560.0
0.02500 33361192.0
0.03500 26616644.0
0.04500 19346094.0
0.05500 12100987.0
0.06500 6862370.0
0.07500 5121742.0
0.08500 5226419.0
0.09500 5800032.0
0.10500 6421083.0
0.11500 7038008.0
0.12500 7620143.0
0.13500 8260101.0
0.14500 8894112.0
0.15500 9458480.0
0.16500 10107067.0
0.17500 10770000.0
0.18500 11310972.0
0.19500 11883349.0
0.20500 12399708.0
0.21500 12972732.0
0.22500 13417193.0
0.23500 13982556.0
0.24500 14573784.0
0.25500 15091226.0
0.26500 15595074.0
0.27500 16109150.0
0.28500 16686490.0
0.29500 17207374.0
0.30500 17640532.0
0.31500 18154060.0
0.32500 18665632.0
0.33500 19209512.0
0.34500 19637104.0
0.35500 20053524.0
0.36500 20417182.0
0.37500 20786214.0
0.38500 21164992.0
0.39500 21638940.0
0.40500 21941904.0
0.41500 22309184.0
0.42500 22780502.0
0.43500 23008382.0
0.44500 23267148.0
0.45500 23586260.0
0.46500 23966900.0
0.47500 24255540.0
0.48500 24597368.0
0.49500 24792624.0
0.50500 24994500.0
0.51500 25354994.0
0.52500 25478374.0
0.53500 25677412.0
0.54500 25794052.0
0.55500 25968726.0
0.56500 26144760.0
0.57500 26307264.0
0.58500 26472956.0
0.59500 26527004.0
0.60500 26633152.0
0.61500 26691188.0
0.62500 26558428.0
0.63500 26400156.0
0.64500 26270702.0
0.65500 26164156.0
0.66500 25715062.0
0.67500 25160508.0
0.68500 24404076.0
0.69500 23286748.0
0.70500 21537108.0
0.71500 19073694.0
0.72500 16236284.0
0.73500 13364809.0
0.74500 11088603.0
0.75500 9250706.0
0.76500 7892714.0
0.77500 6897717.0
0.78500 6054868.0
0.79500 5376266.0
0.80500 4787000.0
0.81500 4286849.0
0.82500 3914879.0
0.83500 3536756.0
0.84500 3223374.0
0.85500 2949697.0
0.86500 2700509.0
0.87500 2484683.0
0.88500 2310483.0
0.89500 2164618.0
0.90500 1994575.0
0.91500 1862424.0
0.92500 1748621.0
0.93500 1607318.0
0.94500 1503215.0
0.95500 1418201.0
0.96500 1311868.0
0.97500 1228389.0
0.98500 1189186.0
0.99500 1115667.0
1.00500 1020420.0
1.01500 984984.0
1.02500 953522.0
1.03500 872240.0
1.04500 818208.0
1.05500 802325.0
1.06500 761350.0
1.07500 699953.0
1.08500 669299.0
1.09500 660161.0
1.10500 616978.0
1.11500 564605.0
1.12500 555649.0
1.13500 551624.0
1.14500 509937.0
1.15500 465487.0
1.16500 463577.0
1.17500 458201.0
1.18500 418962.0
1.19500 386707.0
1.20500 390295.0
1.21500 392322.0
1.22500 355868.0
1.23500 327320.0
1.24500 325484.0
1.25500 328309.0
1.26500 301358.0
1.27500 277381.0
1.28500 278050.0
1.29500 281238.0
1.30500 260598.0
1.31500 233431.0
1.32500 232647.0
1.33500 241560.0
1.34500 228328.0
1.35500 203163.0
1.36500 196494.0
1.37500 207316.0
1.38500 200073.0
1.39500 177308.0
1.40500 166897.0
1.41500 174177.0
1.42500 178789.0
1.43500 163112.0
1.44500 147130.0
1.45500 147845.0
1.46500 153950.0
1.47500 143338.0
1.48500 126714.0
1.49500 125682.0
1.50500 134467.0
1.51500 132714.0
1.52500 117331.0
1.53500 106742.0
1.54500 111985.0
1.55500 115702.0
1.56500 106952.0
1.57500 95095.0
1.58500 95457.0
1.59500 102658.0
1.60500 99431.0
1.61500 87664.0
1.62500 81147.0
1.63500 85567.0
1.64500 87777.0
1.65500 79824.0
1.66500 72179.0
1.67500 73955.0
1.68500 78876.0
1.69500 76310.0
1.70500 66359.0
1.71500 62457.0
1.72500 66196.0
1.73500 68870.0
1.74500 63523.0
1.75500 56351.0
1.76500 57554.0
1.77500 61982.0
1.78500 60669.0
1.79500 52987.0
1.80500 48365.0
1.81500 51940.0
1.82500 55183.0
1.83500 51736.0
1.84500 45151.0
1.85500 44578.0
1.86500 48825.0
1.87500 49708.0
1.88500 44137.0
1.89500 39204.0
1.90500 40707.0
1.91500 44222.0
1.92500 43238.0
1.93500 37929.0
1.94500 35341.0
1.95500 38293.0
1.96500 41099.0
1.97500 37566.0
1.98500 32955.0
1.99500 32707.0
2.00500 36186.0
2.01500 36372.0
2.02500 32420.0
2.03500 29062.0
2.04500 31054.0
2.05500 33474.0
2.06500 32593.0
2.07500 28176.0
2.08500 26297.0
2.09500 28646.0
2.10500 30899.0
2.11500 28692.0
2.12500 25183.0
2.13500 25305.0
2.14500 28304.0
2.15500 29530.0
2.16500 27192.0
2.17500 23521.0
2.18500 23844.0
2.19500 26434.0
2.20500 26982.0
2.21500 24030.0
2.22500 22397.0
2.23500 36206.0
2.24500 27481.0
2.25500 26906.0
2.26500 23123.0
2.27500 22044.0
2.28500 24075.0
2.29500 26526.0
2.30500 25525.0
2.31500 22689.0
2.32500 23351.0
2.33500 26190.0
2.34500 27795.0
2.35500 25641.0
2.36500 22671.0
2.37500 23319.0
2.38500 27479.0
2.39500 29660.0
2.40500 27662.0
2.41500 26036.0
2.42500 28881.0
2.43500 33481.0
2.44500 34355.0
2.45500 31532.0
2.46500 31378.0
2.47500 38989.0
2.48500 47833.0
2.49500 49965.0
2.50500 47253.0
2.51500 52164.0
2.52500 68573.0
2.53500 86713.0
2.54500 98731.0
2.55500 133593.0
2.56500 244679.0
2.57500 472136.0
2.58500 803623.0
2.59500 1106270.0
2.60500 1277202.0
2.61500 1243245.0
2.62500 1047693.0
2.63500 759039.0
2.64500 508425.0
2.65500 342794.0
2.66500 256515.0
2.67500 209442.0
2.68500 171147.0
2.69500 136460.0
2.70500 109061.0
2.71500 90293.0
2.72500 79065.0
2.73500 67938.0
2.74500 57324.0
2.75500 48244.0
2.76500 42455.0
2.77500 37812.0
2.78500 33308.0
2.79500 29578.0
2.80500 26231.0
2.81500 23567.0
2.82500 21896.0
2.83500 19696.0
2.84500 17673.0
2.85500 16134.0
2.86500 14650.0
2.87500 13476.0
2.88500 12507.0
2.89500 11420.0
2.90500 10589.0
2.91500 9494.0
2.92500 8817.0
2.93500 8293.0
2.94500 7833.0
2.95500 7192.0
2.96500 6853.0
2.97500 6497.0
2.98500 6177.0
2.99500 5776.0
3.00500 5672.0
3.01500 5484.0
3.02500 5134.0
3.03500 4646.0
3.04500 4695.0
3.05500 4319.0
3.06500 4212.0
3.07500 3871.0
3.08500 3527.0
3.09500 3505.0
3.10500 3404.0
3.11500 3382.0
3.12500 3228.0
3.13500 3059.0
3.14500 3004.0
3.15500 2910.0
3.16500 2826.0
3.17500 2589.0
3.18500 2446.0
3.19500 2340.0
3.20500 2277.0
3.21500 2155.0
3.22500 2142.0
3.23500 2181.0
3.24500 2044.0
3.25500 1928.0
3.26500 1895.0
3.27500 1832.0
3.28500 1769.0
3.29500 1716.0
3.30500 1759.0
3.31500 1643.0
3.32500 1547.0
3.33500 1497.0
3.34500 1424.0
3.35500 1419.0
3.36500 1359.0
3.37500 1222.0
3.38500 1220.0
3.39500 1241.0
3.40500 1171.0
3.41500 1203.0
3.42500 1166.0
3.43500 1183.0
3.44500 1190.0
3.45500 1230.0
3.46500 1173.0
3.47500 1039.0
3.48500 972.0
3.49500 1008.0
3.50500 968.0
3.51500 932.0
3.52500 968.0
3.53500 936.0
3.54500 896.0
3.55500 880.0
3.56500 845.0
3.57500 793.0
3.58500 879.0
3.59500 831.0
3.60500 751.0
3.61500 657.0
3.62500 630.0
3.63500 683.0
3.64500 705.0
3.65500 711.0
3.66500 714.0
3.67500 649.0
3.68500 615.0
3.69500 591.0
3.70500 621.0
3.71500 583.0
3.72500 579.0
3.73500 597.0
3.74500 620.0
3.75500 571.0
3.76500 516.0
3.77500 545.0
3.78500 707.0
3.79500 626.0
3.80500 605.0
3.81500 625.0
3.82500 559.0
3.83500 496.0
3.84500 548.0
3.85500 483.0
3.86500 498.0
3.87500 510.0
3.88500 556.0
3.89500 556.0
3.90500 510.0
3.91500 498.0
3.92500 436.0
3.93500 422.0
3.94500 460.0
3.95500 473.0
3.96500 412.0
3.97500 407.0
3.98500 452.0
3.99500 450.0
4.00500 431.0
4.01500 421.0
4.02500 374.0
4.03500 380.0
4.04500 382.0
4.05500 386.0
4.06500 347.0
4.07500 378.0
4.08500 355.0
4.09500 362.0
4.10500 356.0
4.11500 336.0
4.12500 321.0
4.13500 382.0
4.14500 388.0
4.15500 324.0
4.16500 371.0
4.17500 363.0
4.18500 335.0
4.19500 347.0
4.20500 329.0
4.21500 399.0
4.22500 389.0
4.23500 333.0
4.24500 346.0
4.25500 343.0
4.26500 327.0
4.27500 346.0
4.28500 375.0
4.29500 338.0
4.30500 351.0
4.31500 361.0
4.32500 338.0
4.33500 363.0
4.34500 286.0
4.35500 287.0
4.36500 256.0
4.37500 302.0
4.38500 368.0
4.39500 349.0
4.40500 335.0
4.41500 314.0
4.42500 387.0
4.43500 401.0
4.44500 307.0
4.45500 291.0
4.46500 283.0
4.47500 314.0
4.48500 282.0
4.49500 253.0
4.50500 266.0
4.51500 320.0
4.52500 313.0
4.53500 288.0
4.54500 302.0
4.55500 304.0
4.56500 294.0
4.57500 296.0
4.58500 423.0
4.59500 367.0
4.60500 422.0
4.61500 326.0
4.62500 330.0
4.63500 316.0
4.64500 319.0
4.65500 263.0
4.66500 318.0
4.67500 331.0
4.68500 306.0
4.69500 297.0
4.70500 326.0
4.71500 257.0
4.72500 318.0
4.73500 267.0
4.74500 236.0
4.75500 260.0
4.76500 235.0
4.77500 255.0
4.78500 334.0
4.79500 338.0
4.80500 280.0
4.81500 326.0
4.82500 288.0
4.83500 240.0
4.84500 261.0
4.85500 263.0
4.86500 304.0
4.87500 347.0
4.88500 359.0
4.89500 272.0
4.90500 309.0
4.91500 359.0
4.92500 431.0
4.93500 410.0
4.94500 387.0
4.95500 405.0
4.96500 470.0
4.97500 605.0
4.98500 704.0
4.99500 843.0
5.00500 1330.0
5.01500 2405.0
5.02500 4563.0
5.03500 7096.0
5.04500 9245.0
5.05500 10652.0
5.06500 10219.0
5.07500 8937.0
5.08500 6950.0
5.09500 5111.0
5.10500 3786.0
5.11500 3016.0
5.12500 2662.0
5.13500 2184.0
5.14500 1836.0
5.15500 1496.0
5.16500 1302.0
5.17500 1214.0
5.18500 1012.0
5.19500 930.0
5.20500 807.0
5.21500 711.0
5.22500 696.0
5.23500 629.0
5.24500 623.0
5.25500 647.0
5.26500 637.0
5.27500 560.0
5.28500 558.0
5.29500 617.0
5.30500 538.0
5.31500 497.0
5.32500 505.0
5.33500 499.0
5.34500 549.0
5.35500 526.0
5.36500 480.0
5.37500 493.0
5.38500 483.0
5.39500 453.0
5.40500 336.0
5.41500 306.0
5.42500 353.0
5.43500 309.0
5.44500 319.0
5.45500 312.0
5.46500 414.0
5.47500 326.0
5.48500 255.0
5.49500 263.0
5.50500 236.0
5.51500 283.0
5.52500 256.0
5.53500 258.0
5.54500 272.0
5.55500 238.0
5.56500 275.0
5.57500 296.0
5.58500 270.0
5.59500 249.0
5.60500 269.0
5.61500 296.0
5.62500 232.0
5.63500 206.0
5.64500 276.0
5.65500 252.0
5.66500 248.0
5.67500 272.0
5.68500 186.0
5.69500 241.0
5.70500 216.0
5.71500 196.0
5.72500 260.0
5.73500 226.0
5.74500 204.0
5.75500 203.0
5.76500 261.0
5.77500 213.0
5.78500 230.0
5.79500 257.0
5.80500 302.0
5.81500 310.0
5.82500 395.0
5.83500 336.0
5.84500 326.0
5.85500 270.0
5.86500 242.0
5.87500 272.0
5.88500 184.0
5.89500 191.0
5.90500 235.0
5.91500 274.0
5.92500 226.0
5.93500 241.0
5.94500 253.0
5.95500 227.0
5.96500 224.0
5.97500 232.0
5.98500 204.0
5.99500 144.0
6.00500 175.0
6.01500 168.0
6.02500 195.0
6.03500 208.0
6.04500 198.0
6.05500 195.0
6.06500 216.0
6.07500 224.0
6.08500 236.0
6.09500 172.0
6.10500 211.0
6.11500 149.0
6.12500 183.0
6.13500 196.0
6.14500 190.0
6.15500 240.0
6.16500 165.0
6.17500 161.0
6.18500 167.0
6.19500 167.0
6.20500 203.0
6.21500 217.0
6.22500 188.0
6.23500 189.0
6.24500 196.0
6.25500 158.0
6.26500 184.0
6.27500 180.0
6.28500 238.0
6.29500 135.0
6.30500 242.0
6.31500 218.0
6.32500 267.0
6.33500 210.0
6.34500 199.0
6.35500 210.0
6.36500 176.0
6.37500 243.0
6.38500 274.0
6.39500 255.0
6.40500 238.0
6.41500 289.0
6.42500 304.0
6.43500 245.0
6.44500 246.0
6.45500 180.0
6.46500 217.0
6.47500 201.0
6.48500 225.0
6.49500 180.0
6.50500 132.0
6.51500 130.0
6.52500 115.0
6.53500 160.0
6.54500 229.0
6.55500 157.0
6.56500 172.0
6.57500 198.0
6.58500 190.0
6.59500 195.0
6.60500 191.0
6.61500 168.0
6.62500 114.0
6.63500 155.0
6.64500 127.0
6.65500 146.0
6.66500 149.0
6.67500 149.0
6.68500 133.0
6.69500 229.0
6.70500 238.0
6.71500 200.0
6.72500 230.0
6.73500 181.0
6.74500 161.0
6.75500 180.0
6.76500 189.0
6.77500 164.0
6.78500 159.0
6.79500 135.0
6.80500 135.0
6.81500 115.0
6.82500 141.0
6.83500 194.0
6.84500 224.0
6.85500 272.0
6.86500 194.0
6.87500 153.0
6.88500 139.0
6.89500 208.0
6.90500 190.0
6.91500 256.0
6.92500 151.0
6.93500 208.0
6.94500 181.0
6.95500 221.0
6.96500 180.0
6.97500 232.0
6.98500 244.0
6.99500 254.0
7.00500 273.0
7.01500 246.0
7.02500 235.0
7.03500 235.0
7.04500 192.0
7.05500 176.0
7.06500 167.0
7.07500 161.0
7.08500 162.0
7.09500 211.0
7.10500 267.0
7.11500 267.0
7.12500 206.0
7.13500 203.0
7.14500 205.0
7.15500 204.0
7.16500 216.0
7.17500 135.0
7.18500 202.0
7.19500 165.0
7.20500 206.0
7.21500 232.0
7.22500 332.0
7.23500 444.0
7.24500 340.0
7.25500 275.0
7.26500 237.0
7.27500 169.0
7.28500 199.0
7.29500 183.0
7.30500 150.0
7.31500 172.0
7.32500 152.0
7.33500 209.0
7.34500 202.0
7.35500 168.0
7.36500 158.0
7.37500 203.0
7.38500 195.0
7.39500 253.0
7.40500 294.0
7.41500 252.0
7.42500 224.0
7.43500 183.0
7.44500 210.0
7.45500 231.0
7.46500 217.0
7.47500 155.0
7.48500 281.0
7.49500 355.0
7.50500 307.0
7.51500 233.0
7.52500 225.0
7.53500 277.0
7.54500 437.0
7.55500 414.0
7.56500 390.0
7.57500 259.0
7.58500 294.0
7.59500 186.0
7.60500 264.0
7.61500 201.0
7.62500 252.0
7.63500 224.0
7.64500 213.0
7.65500 203.0
7.66500 250.0
7.67500 258.0
7.68500 221.0
7.69500 202.0
7.70500 239.0
7.71500 272.0
7.72500 225.0
7.73500 209.0
7.74500 192.0
7.75500 185.0
7.76500 223.0
7.77500 204.0
7.78500 214.0
7.79500 180.0
7.80500 221.0
7.81500 198.0
7.82500 213.0
7.83500 327.0
7.84500 281.0
7.85500 352.0
7.86500 316.0
7.87500 275.0
7.88500 220.0
7.89500 247.0
7.90500 205.0
7.91500 205.0
7.92500 220.0
7.93500 203.0
7.94500 317.0
7.95500 278.0
7.96500 212.0
7.97500 190.0
7.98500 231.0
7.99500 210.0
