0.01000 9568784.0
0.02000 8654974.0
0.03000 6617592.0
0.04000 4511897.0
0.05000 2376424.0
0.06000 828664.0
0.07000 162960.0
0.08000 27317.0
0.09000 8701.0
0.10000 5588.0
0.11000 5265.0
0.12000 5428.0
0.13000 5835.0
0.14000 6259.0
0.15000 6318.0
0.16000 6572.0
0.17000 6680.0
0.18000 6875.0
0.19000 7126.0
0.20000 7235.0
0.21000 7493.0
0.22000 7801.0
0.23000 7892.0
0.24000 8202.0
0.25000 8391.0
0.26000 8714.0
0.27000 8993.0
0.28000 9489.0
0.29000 9466.0
0.30000 10068.0
0.31000 10206.0
0.32000 10396.0
0.33000 10674.0
0.34000 10836.0
0.35000 11283.0
0.36000 11579.0
0.37000 11617.0
0.38000 12110.0
0.39000 12122.0
0.40000 12556.0
0.41000 12602.0
0.42000 13060.0
0.43000 13074.0
0.44000 13390.0
0.45000 13725.0
0.46000 13823.0
0.47000 14181.0
0.48000 14433.0
0.49000 14667.0
0.50000 14792.0
0.51000 15109.0
0.52000 15331.0
0.53000 15186.0
0.54000 15637.0
0.55000 15722.0
0.56000 16334.0
0.57000 16607.0
0.58000 16634.0
0.59000 17012.0
0.60000 17306.0
0.61000 17761.0
0.62000 17941.0
0.63000 18568.0
0.64000 18493.0
0.65000 18869.0
0.66000 19022.0
0.67000 18781.0
0.68000 18103.0
0.69000 16807.0
0.70000 15320.0
0.71000 14257.0
0.72000 12999.0
0.73000 12008.0
0.74000 10949.0
0.75000 10424.0
0.76000 9772.0
0.77000 9135.0
0.78000 8923.0
0.79000 8392.0
0.80000 7816.0
0.81000 7539.0
0.82000 7079.0
0.83000 6441.0
0.84000 6162.0
0.85000 5373.0
0.86000 4792.0
0.87000 4173.0
0.88000 3421.0
0.89000 2834.0
0.90000 2531.0
0.91000 2224.0
0.92000 1921.0
0.93000 1638.0
0.94000 1521.0
0.95000 1297.0
0.96000 1211.0
0.97000 1194.0
0.98000 1077.0
0.99000 937.0
1.00000 947.0
1.01000 834.0
1.02000 778.0
1.03000 827.0
1.04000 800.0
1.05000 885.0
1.06000 1024.0
1.07000 1158.0
1.08000 1462.0
1.09000 1605.0
1.10000 1530.0
1.11000 1307.0
1.12000 1055.0
1.13000 1018.0
1.14000 1036.0
1.15000 1177.0
1.16000 1467.0
1.17000 1562.0
1.18000 1475.0
1.19000 1074.0
1.20000 647.0
1.21000 430.0
1.22000 313.0
1.23000 320.0
1.24000 340.0
1.25000 336.0
1.26000 344.0
1.27000 290.0
1.28000 246.0
1.29000 188.0
1.30000 121.0
1.31000 131.0
1.32000 87.0
1.33000 92.0
1.34000 108.0
1.35000 85.0
1.36000 84.0
1.37000 87.0
1.38000 80.0
1.39000 65.0
1.40000 89.0
1.41000 89.0
1.42000 77.0
1.43000 76.0
1.44000 71.0
1.45000 86.0
1.46000 77.0
1.47000 85.0
1.48000 63.0
1.49000 78.0
1.50000 84.0
1.51000 68.0
1.52000 78.0
1.53000 69.0
1.54000 52.0
1.55000 73.0
1.56000 70.0
1.57000 68.0
1.58000 79.0
1.59000 67.0
1.60000 65.0
1.61000 64.0
1.62000 54.0
1.63000 64.0
1.64000 63.0
1.65000 50.0
1.66000 45.0
1.67000 63.0
1.68000 67.0
1.69000 61.0
1.70000 49.0
1.71000 67.0
1.72000 60.0
1.73000 53.0
1.74000 51.0
1.75000 55.0
1.76000 51.0
1.77000 57.0
1.78000 68.0
1.79000 53.0
1.80000 67.0
1.81000 49.0
1.82000 78.0
1.83000 82.0
1.84000 62.0
1.85000 87.0
1.86000 87.0
1.87000 121.0
1.88000 162.0
1.89000 169.0
1.90000 232.0
1.91000 280.0
1.92000 293.0
1.93000 314.0
1.94000 295.0
1.95000 307.0
1.96000 257.0
1.97000 215.0
1.98000 188.0
1.99000 158.0
2.00000 133.0
2.01000 115.0
2.02000 101.0
2.03000 104.0
2.04000 85.0
2.05000 77.0
2.06000 60.0
2.07000 68.0
2.08000 54.0
2.09000 60.0
2.10000 36.0
2.11000 46.0
2.12000 39.0
2.13000 39.0
2.14000 41.0
2.15000 34.0
2.16000 28.0
2.17000 37.0
2.18000 43.0
2.19000 69.0
2.20000 62.0
2.21000 66.0
2.22000 54.0
2.23000 40.0
2.24000 36.0
2.25000 56.0
2.26000 38.0
2.27000 36.0
2.28000 47.0
2.29000 61.0
2.30000 54.0
2.31000 35.0
2.32000 44.0
2.33000 64.0
2.34000 37.0
2.35000 49.0
2.36000 31.0
2.37000 50.0
2.38000 44.0
2.39000 41.0
2.40000 32.0
2.41000 56.0
2.42000 30.0
2.43000 41.0
2.44000 35.0
2.45000 52.0
2.46000 37.0
2.47000 47.0
2.48000 33.0
2.49000 57.0
2.50000 51.0
2.51000 23.0
2.52000 25.0
2.53000 36.0
2.54000 36.0
2.55000 37.0
2.56000 33.0
2.57000 33.0
2.58000 35.0
2.59000 36.0
2.60000 36.0
2.61000 30.0
2.62000 18.0
2.63000 35.0
2.64000 39.0
2.65000 43.0
2.66000 42.0
2.67000 28.0
2.68000 23.0
2.69000 35.0
2.70000 35.0
2.71000 37.0
2.72000 29.0
2.73000 40.0
2.74000 50.0
2.75000 52.0
2.76000 64.0
2.77000 84.0
2.78000 96.0
2.79000 73.0
2.80000 97.0
2.81000 60.0
2.82000 65.0
2.83000 59.0
2.84000 60.0
2.85000 59.0
2.86000 47.0
2.87000 47.0
2.88000 38.0
2.89000 40.0
2.90000 35.0
2.91000 43.0
2.92000 26.0
2.93000 44.0
2.94000 39.0
2.95000 35.0
2.96000 36.0
2.97000 30.0
2.98000 23.0
2.99000 27.0
3.00000 31.0
3.01000 28.0
3.02000 26.0
3.03000 15.0
3.04000 26.0
3.05000 22.0
3.06000 39.0
3.07000 23.0
3.08000 23.0
3.09000 22.0
3.10000 23.0
3.11000 13.0
3.12000 21.0
3.13000 18.0
3.14000 14.0
3.15000 22.0
3.16000 21.0
3.17000 12.0
3.18000 28.0
3.19000 16.0
3.20000 17.0
3.21000 28.0
3.22000 28.0
3.23000 24.0
3.24000 24.0
3.25000 32.0
3.26000 20.0
3.27000 24.0
3.28000 21.0
3.29000 17.0
3.30000 27.0
3.31000 27.0
3.32000 17.0
3.33000 19.0
3.34000 27.0
3.35000 25.0
3.36000 28.0
3.37000 18.0
3.38000 21.0
3.39000 23.0
3.40000 21.0
3.41000 37.0
3.42000 22.0
3.43000 19.0
3.44000 22.0
