0.00500 11762236.0
0.01500 12995376.0
0.02500 11266830.0
0.03500 8483054.0
0.04500 5397492.0
0.05500 3007719.0
0.06500 1790512.0
0.07500 1581045.0
0.08500 1719902.0
0.09500 1918579.0
0.10500 2120384.0
0.11500 2309019.0
0.12500 2514212.0
0.13500 2707467.0
0.14500 2903728.0
0.15500 3099910.0
0.16500 3286498.0
0.17500 3467761.0
0.18500 3646837.0
0.19500 3864235.0
0.20500 4058377.0
0.21500 4251849.0
0.22500 4411296.0
0.23500 4628348.0
0.24500 4854508.0
0.25500 5038417.0
0.26500 5179845.0
0.27500 5352244.0
0.28500 5528100.0
0.29500 5699500.0
0.30500 5909853.0
0.31500 6099631.0
0.32500 6236649.0
0.33500 6394575.0
0.34500 6521084.0
0.35500 6658066.0
0.36500 6821279.0
0.37500 6957436.0
0.38500 7077610.0
0.39500 7218213.0
0.40500 7373536.0
0.41500 7541377.0
0.42500 7670946.0
0.43500 7841900.0
0.44500 7933100.0
0.45500 8074549.0
0.46500 8205792.0
0.47500 8266929.0
0.48500 8401681.0
0.49500 8523370.0
0.50500 8655512.0
0.51500 8723525.0
0.52500 8812766.0
0.53500 8869075.0
0.54500 9008890.0
0.55500 9152263.0
0.56500 9228988.0
0.57500 9297910.0
0.58500 9384217.0
0.59500 9453737.0
0.60500 9482562.0
0.61500 9643594.0
0.62500 9669068.0
0.63500 9628344.0
0.64500 9638556.0
0.65500 9634325.0
0.66500 9624909.0
0.67500 9591262.0
0.68500 9501155.0
0.69500 9429922.0
0.70500 9262783.0
0.71500 9012249.0
0.72500 8603651.0
0.73500 7866278.0
0.74500 6862549.0
0.75500 5782854.0
0.76500 4774766.0
0.77500 3992338.0
0.78500 3413586.0
0.79500 2951405.0
0.80500 2622583.0
0.81500 2321080.0
0.82500 2086117.0
0.83500 1876540.0
0.84500 1706032.0
0.85500 1559017.0
0.86500 1422580.0
0.87500 1323113.0
0.88500 1215996.0
0.89500 1133501.0
0.90500 1055068.0
0.91500 981524.0
0.92500 914682.0
0.93500 857398.0
0.94500 799236.0
0.95500 751080.0
0.96500 705469.0
0.97500 672158.0
0.98500 634168.0
0.99500 594991.0
1.00500 563844.0
1.01500 532690.0
1.02500 506302.0
1.03500 481031.0
1.04500 459849.0
1.05500 440927.0
1.06500 418258.0
1.07500 400694.0
1.08500 381407.0
1.09500 365500.0
1.10500 349073.0
1.11500 334034.0
1.12500 321241.0
1.13500 308352.0
1.14500 296912.0
1.15500 285172.0
1.16500 274518.0
1.17500 263514.0
1.18500 256759.0
1.19500 248369.0
1.20500 239631.0
1.21500 230158.0
1.22500 223047.0
1.23500 217610.0
1.24500 211478.0
1.25500 207186.0
1.26500 197774.0
1.27500 191738.0
1.28500 188743.0
1.29500 186755.0
1.30500 182632.0
1.31500 177170.0
1.32500 172013.0
1.33500 170768.0
1.34500 166169.0
1.35500 162916.0
1.36500 159080.0
1.37500 155838.0
1.38500 156136.0
1.39500 153138.0
1.40500 152825.0
1.41500 152097.0
1.42500 150378.0
1.43500 152949.0
1.44500 155342.0
1.45500 157023.0
1.46500 158741.0
1.47500 159252.0
1.48500 160727.0
1.49500 159950.0
1.50500 163668.0
1.51500 166945.0
1.52500 169874.0
1.53500 175403.0
1.54500 184101.0
1.55500 195783.0
1.56500 211778.0
1.57500 233323.0
1.58500 262821.0
1.59500 309256.0
1.60500 389995.0
1.61500 555581.0
1.62500 841763.0
1.63500 1358846.0
1.64500 2204615.0
1.65500 3123216.0
1.66500 3741888.0
1.67500 3484514.0
1.68500 2452825.0
1.69500 1301670.0
1.70500 643371.0
1.71500 380066.0
1.72500 249627.0
1.73500 167222.0
1.74500 120220.0
1.75500 87391.0
1.76500 65429.0
1.77500 50677.0
1.78500 40881.0
1.79500 33797.0
1.80500 28264.0
1.81500 24312.0
1.82500 20567.0
1.83500 17710.0
1.84500 15647.0
1.85500 14045.0
1.86500 13121.0
1.87500 12092.0
1.88500 11266.0
1.89500 10753.0
1.90500 9988.0
1.91500 9618.0
1.92500 9251.0
1.93500 8859.0
1.94500 8558.0
1.95500 8377.0
1.96500 7942.0
1.97500 7829.0
1.98500 7733.0
1.99500 7490.0
2.00500 7458.0
2.01500 7173.0
2.02500 6837.0
2.03500 6541.0
2.04500 6195.0
2.05500 5966.0
2.06500 5989.0
2.07500 5864.0
2.08500 5698.0
2.09500 5587.0
2.10500 5250.0
2.11500 4990.0
2.12500 5048.0
2.13500 5116.0
2.14500 4880.0
2.15500 4801.0
2.16500 4645.0
2.17500 4573.0
2.18500 4528.0
2.19500 4464.0
2.20500 4357.0
2.21500 4260.0
2.22500 4150.0
2.23500 4271.0
2.24500 4249.0
2.25500 4143.0
2.26500 3902.0
2.27500 3779.0
2.28500 3574.0
2.29500 3534.0
2.30500 3489.0
2.31500 3573.0
2.32500 3542.0
2.33500 3362.0
2.34500 3255.0
2.35500 3092.0
2.36500 3210.0
2.37500 3283.0
2.38500 3243.0
2.39500 3010.0
2.40500 3063.0
2.41500 3034.0
2.42500 3013.0
2.43500 2943.0
2.44500 2954.0
2.45500 2834.0
2.46500 2717.0
2.47500 2619.0
2.48500 2582.0
2.49500 2565.0
2.50500 2486.0
2.51500 2359.0
2.52500 2412.0
2.53500 2509.0
2.54500 2413.0
2.55500 2353.0
2.56500 2357.0
2.57500 2363.0
2.58500 2368.0
2.59500 2189.0
2.60500 2260.0
2.61500 2266.0
2.62500 2064.0
2.63500 1965.0
2.64500 2074.0
2.65500 2064.0
2.66500 2156.0
2.67500 2179.0
2.68500 2101.0
2.69500 2060.0
2.70500 1965.0
2.71500 2084.0
2.72500 2023.0
2.73500 1973.0
2.74500 1940.0
2.75500 1854.0
2.76500 2000.0
2.77500 2002.0
2.78500 2103.0
2.79500 2061.0
2.80500 2056.0
2.81500 2162.0
2.82500 2158.0
2.83500 2276.0
2.84500 2387.0
2.85500 2443.0
2.86500 2476.0
2.87500 2560.0
2.88500 2546.0
2.89500 2793.0
2.90500 2927.0
2.91500 2980.0
2.92500 3007.0
2.93500 3100.0
2.94500 3473.0
2.95500 3730.0
2.96500 4072.0
2.97500 4436.0
2.98500 5142.0
2.99500 5911.0
3.00500 7707.0
3.01500 10610.0
3.02500 17670.0
3.03500 30978.0
3.04500 52509.0
3.05500 89312.0
3.06500 131226.0
3.07500 159215.0
3.08500 149820.0
3.09500 110147.0
3.10500 66964.0
3.11500 42785.0
3.12500 31541.0
3.13500 22540.0
3.14500 16209.0
3.15500 12147.0
3.16500 9774.0
3.17500 7657.0
3.18500 6218.0
3.19500 5111.0
3.20500 4225.0
3.21500 3721.0
3.22500 3012.0
3.23500 2768.0
3.24500 2382.0
3.25500 2030.0
3.26500 1735.0
3.27500 1402.0
3.28500 1297.0
3.29500 1178.0
3.30500 1040.0
3.31500 955.0
3.32500 887.0
3.33500 833.0
3.34500 732.0
3.35500 618.0
3.36500 623.0
3.37500 577.0
3.38500 514.0
3.39500 469.0
3.40500 467.0
3.41500 419.0
3.42500 393.0
3.43500 428.0
3.44500 392.0
3.45500 406.0
3.46500 340.0
3.47500 341.0
3.48500 298.0
3.49500 288.0
3.50500 332.0
3.51500 256.0
3.52500 280.0
3.53500 285.0
3.54500 260.0
3.55500 243.0
3.56500 214.0
3.57500 233.0
3.58500 259.0
3.59500 215.0
3.60500 216.0
3.61500 214.0
3.62500 202.0
3.63500 207.0
3.64500 209.0
3.65500 214.0
3.66500 211.0
3.67500 206.0
3.68500 174.0
3.69500 168.0
3.70500 157.0
3.71500 196.0
3.72500 166.0
3.73500 156.0
3.74500 150.0
3.75500 159.0
3.76500 145.0
3.77500 144.0
3.78500 189.0
3.79500 130.0
3.80500 114.0
3.81500 154.0
3.82500 122.0
3.83500 127.0
3.84500 138.0
3.85500 125.0
3.86500 142.0
3.87500 116.0
3.88500 129.0
3.89500 124.0
3.90500 108.0
3.91500 114.0
3.92500 125.0
3.93500 117.0
3.94500 110.0
3.95500 100.0
3.96500 141.0
3.97500 135.0
3.98500 145.0
3.99500 111.0
4.00500 107.0
4.01500 114.0
4.02500 148.0
4.03500 132.0
4.04500 128.0
4.05500 120.0
4.06500 161.0
4.07500 111.0
4.08500 114.0
4.09500 114.0
4.10500 134.0
4.11500 112.0
4.12500 101.0
4.13500 131.0
4.14500 127.0
4.15500 139.0
4.16500 114.0
4.17500 113.0
4.18500 79.0
4.19500 132.0
4.20500 120.0
4.21500 126.0
4.22500 120.0
4.23500 119.0
4.24500 130.0
4.25500 128.0
4.26500 141.0
4.27500 146.0
4.28500 119.0
4.29500 160.0
4.30500 142.0
4.31500 159.0
4.32500 155.0
4.33500 171.0
4.34500 155.0
4.35500 161.0
4.36500 185.0
4.37500 174.0
4.38500 202.0
4.39500 184.0
4.40500 209.0
4.41500 241.0
4.42500 291.0
4.43500 287.0
4.44500 333.0
4.45500 334.0
4.46500 529.0
4.47500 753.0
4.48500 1200.0
4.49500 1983.0
4.50500 3273.0
4.51500 5159.0
4.52500 7494.0
4.53500 8556.0
4.54500 8603.0
4.55500 7050.0
4.56500 5189.0
4.57500 3853.0
4.58500 3110.0
4.59500 2363.0
4.60500 1808.0
4.61500 1359.0
4.62500 1075.0
4.63500 947.0
4.64500 728.0
4.65500 610.0
4.66500 500.0
4.67500 441.0
4.68500 427.0
4.69500 394.0
4.70500 371.0
4.71500 361.0
4.72500 303.0
4.73500 240.0
4.74500 192.0
4.75500 208.0
4.76500 181.0
4.77500 154.0
4.78500 156.0
4.79500 152.0
4.80500 123.0
4.81500 148.0
4.82500 134.0
4.83500 160.0
4.84500 126.0
4.85500 82.0
4.86500 119.0
4.87500 99.0
4.88500 101.0
4.89500 112.0
4.90500 126.0
4.91500 92.0
4.92500 95.0
4.93500 114.0
4.94500 95.0
4.95500 129.0
4.96500 92.0
4.97500 98.0
4.98500 103.0
4.99500 90.0
5.00500 103.0
5.01500 92.0
5.02500 93.0
5.03500 114.0
5.04500 112.0
5.05500 111.0
5.06500 98.0
5.07500 80.0
5.08500 110.0
5.09500 82.0
5.10500 84.0
5.11500 100.0
5.12500 90.0
5.13500 84.0
5.14500 76.0
5.15500 71.0
5.16500 76.0
5.17500 64.0
5.18500 77.0
5.19500 76.0
5.20500 72.0
5.21500 82.0
5.22500 78.0
5.23500 102.0
5.24500 70.0
5.25500 78.0
5.26500 75.0
5.27500 70.0
5.28500 69.0
5.29500 70.0
5.30500 60.0
5.31500 79.0
5.32500 65.0
5.33500 66.0
5.34500 74.0
5.35500 76.0
5.36500 78.0
5.37500 82.0
5.38500 79.0
5.39500 80.0
5.40500 80.0
5.41500 60.0
5.42500 53.0
5.43500 62.0
5.44500 66.0
5.45500 74.0
5.46500 62.0
5.47500 40.0
5.48500 66.0
5.49500 58.0
5.50500 112.0
5.51500 96.0
5.52500 86.0
5.53500 91.0
5.54500 86.0
5.55500 105.0
5.56500 90.0
5.57500 95.0
5.58500 83.0
5.59500 77.0
5.60500 92.0
5.61500 69.0
5.62500 85.0
5.63500 91.0
5.64500 50.0
5.65500 51.0
5.66500 65.0
5.67500 58.0
5.68500 73.0
5.69500 66.0
5.70500 58.0
5.71500 78.0
5.72500 56.0
5.73500 53.0
5.74500 71.0
5.75500 84.0
5.76500 82.0
5.77500 72.0
5.78500 65.0
5.79500 88.0
5.80500 75.0
5.81500 57.0
5.82500 68.0
5.83500 79.0
5.84500 93.0
5.85500 64.0
5.86500 62.0
5.87500 80.0
5.88500 56.0
5.89500 73.0
5.90500 61.0
5.91500 97.0
5.92500 96.0
5.93500 98.0
5.94500 90.0
5.95500 148.0
5.96500 139.0
5.97500 163.0
5.98500 219.0
5.99500 299.0
6.00500 376.0
6.01500 320.0
6.02500 267.0
6.03500 208.0
6.04500 201.0
6.05500 135.0
6.06500 152.0
6.07500 121.0
6.08500 128.0
6.09500 105.0
6.10500 105.0
6.11500 101.0
6.12500 91.0
6.13500 93.0
6.14500 108.0
6.15500 97.0
6.16500 88.0
6.17500 55.0
6.18500 51.0
6.19500 49.0
6.20500 75.0
6.21500 54.0
6.22500 56.0
6.23500 62.0
6.24500 84.0
6.25500 83.0
6.26500 77.0
6.27500 83.0
6.28500 54.0
6.29500 68.0
6.30500 46.0
6.31500 62.0
6.32500 41.0
6.33500 33.0
6.34500 68.0
6.35500 40.0
6.36500 47.0
6.37500 45.0
6.38500 46.0
6.39500 32.0
6.40500 39.0
6.41500 45.0
6.42500 59.0
6.43500 38.0
6.44500 57.0
6.45500 55.0
6.46500 52.0
6.47500 41.0
6.48500 37.0
6.49500 51.0
6.50500 44.0
6.51500 51.0
6.52500 52.0
6.53500 50.0
6.54500 48.0
6.55500 32.0
6.56500 41.0
6.57500 59.0
6.58500 59.0
6.59500 55.0
6.60500 62.0
6.61500 64.0
6.62500 85.0
6.63500 48.0
6.64500 54.0
6.65500 37.0
6.66500 36.0
6.67500 34.0
6.68500 46.0
6.69500 39.0
6.70500 30.0
6.71500 42.0
6.72500 40.0
6.73500 49.0
6.74500 34.0
6.75500 44.0
6.76500 36.0
6.77500 14.0
6.78500 39.0
6.79500 32.0
6.80500 38.0
6.81500 40.0
6.82500 40.0
6.83500 37.0
6.84500 32.0
6.85500 43.0
6.86500 50.0
6.87500 28.0
6.88500 23.0
6.89500 28.0
6.90500 23.0
6.91500 41.0
6.92500 23.0
6.93500 31.0
6.94500 39.0
6.95500 30.0
6.96500 23.0
6.97500 35.0
6.98500 38.0
6.99500 33.0
7.00500 36.0
7.01500 38.0
7.02500 41.0
7.03500 33.0
7.04500 34.0
7.05500 34.0
7.06500 39.0
7.07500 31.0
7.08500 39.0
7.09500 33.0
7.10500 30.0
7.11500 34.0
7.12500 58.0
7.13500 44.0
7.14500 39.0
7.15500 34.0
7.16500 36.0
7.17500 43.0
7.18500 39.0
7.19500 48.0
7.20500 61.0
7.21500 75.0
7.22500 52.0
7.23500 50.0
7.24500 76.0
7.25500 44.0
7.26500 71.0
7.27500 68.0
7.28500 45.0
7.29500 42.0
7.30500 29.0
7.31500 54.0
7.32500 46.0
7.33500 38.0
7.34500 32.0
7.35500 30.0
7.36500 40.0
7.37500 50.0
7.38500 46.0
7.39500 47.0
7.40500 54.0
7.41500 45.0
7.42500 50.0
7.43500 65.0
7.44500 61.0
7.45500 66.0
7.46500 80.0
7.47500 96.0
7.48500 128.0
7.49500 140.0
7.50500 141.0
7.51500 135.0
7.52500 139.0
7.53500 125.0
7.54500 124.0
7.55500 90.0
7.56500 76.0
7.57500 70.0
7.58500 72.0
7.59500 67.0
7.60500 62.0
7.61500 78.0
7.62500 72.0
7.63500 65.0
7.64500 44.0
7.65500 58.0
7.66500 46.0
7.67500 59.0
7.68500 57.0
7.69500 43.0
7.70500 53.0
7.71500 52.0
7.72500 40.0
7.73500 43.0
7.74500 45.0
7.75500 29.0
7.76500 48.0
7.77500 35.0
7.78500 46.0
7.79500 72.0
7.80500 43.0
7.81500 56.0
7.82500 59.0
7.83500 59.0
7.84500 46.0
7.85500 56.0
7.86500 41.0
7.87500 36.0
7.88500 63.0
7.89500 47.0
7.90500 30.0
7.91500 38.0
7.92500 60.0
7.93500 49.0
7.94500 51.0
7.95500 48.0
7.96500 50.0
7.97500 28.0
7.98500 32.0
7.99500 39.0
8.00500 24.0
8.01500 24.0
8.02500 31.0
8.03500 36.0
8.04500 33.0
8.05500 46.0
8.06500 40.0
8.07500 40.0
8.08500 41.0
8.09500 49.0
8.10500 46.0
8.11500 44.0
8.12500 56.0
8.13500 59.0
8.14500 51.0
8.15500 46.0
8.16500 42.0
8.17500 47.0
8.18500 33.0
8.19500 32.0
8.20500 49.0
8.21500 46.0
8.22500 29.0
8.23500 21.0
8.24500 25.0
8.25500 24.0
8.26500 54.0
8.27500 28.0
8.28500 57.0
8.29500 47.0
8.30500 47.0
8.31500 42.0
8.32500 46.0
8.33500 51.0
8.34500 83.0
8.35500 35.0
8.36500 42.0
8.37500 45.0
8.38500 44.0
8.39500 55.0
8.40500 64.0
8.41500 41.0
8.42500 52.0
8.43500 46.0
8.44500 62.0
8.45500 60.0
8.46500 64.0
8.47500 80.0
8.48500 39.0
8.49500 40.0
8.50500 37.0
8.51500 38.0
8.52500 27.0
8.53500 33.0
8.54500 33.0
8.55500 31.0
8.56500 38.0
8.57500 34.0
8.58500 33.0
8.59500 37.0
8.60500 47.0
8.61500 27.0
8.62500 36.0
8.63500 33.0
8.64500 35.0
8.65500 29.0
8.66500 36.0
8.67500 64.0
8.68500 53.0
8.69500 51.0
8.70500 54.0
8.71500 23.0
8.72500 43.0
8.73500 40.0
8.74500 47.0
8.75500 70.0
8.76500 88.0
8.77500 72.0
8.78500 76.0
8.79500 62.0
8.80500 57.0
8.81500 45.0
8.82500 45.0
8.83500 62.0
8.84500 39.0
8.85500 43.0
8.86500 50.0
8.87500 53.0
8.88500 43.0
8.89500 50.0
8.90500 50.0
8.91500 50.0
8.92500 55.0
8.93500 55.0
8.94500 55.0
8.95500 58.0
8.96500 61.0
8.97500 82.0
8.98500 61.0
8.99500 61.0
9.00500 53.0
9.01500 37.0
9.02500 41.0
9.03500 38.0
9.04500 52.0
9.05500 34.0
9.06500 29.0
9.07500 30.0
9.08500 40.0
9.09500 30.0
9.10500 46.0
9.11500 39.0
9.12500 35.0
9.13500 59.0
9.14500 66.0
9.15500 47.0
9.16500 47.0
9.17500 41.0
9.18500 41.0
9.19500 46.0
9.20500 49.0
9.21500 37.0
9.22500 37.0
9.23500 40.0
9.24500 26.0
9.25500 35.0
9.26500 38.0
9.27500 41.0
9.28500 53.0
9.29500 44.0
9.30500 44.0
9.31500 43.0
9.32500 42.0
9.33500 61.0
9.34500 65.0
9.35500 62.0
9.36500 73.0
9.37500 60.0
9.38500 54.0
9.39500 59.0
9.40500 78.0
9.41500 72.0
9.42500 73.0
9.43500 54.0
9.44500 55.0
9.45500 56.0
9.46500 44.0
9.47500 70.0
9.48500 57.0
9.49500 51.0
9.50500 63.0
9.51500 81.0
9.52500 65.0
9.53500 84.0
9.54500 72.0
9.55500 75.0
9.56500 49.0
9.57500 59.0
9.58500 53.0
9.59500 60.0
9.60500 55.0
9.61500 53.0
9.62500 48.0
9.63500 44.0
9.64500 55.0
9.65500 44.0
9.66500 75.0
9.67500 64.0
9.68500 65.0
9.69500 65.0
9.70500 61.0
9.71500 64.0
9.72500 55.0
9.73500 69.0
9.74500 106.0
9.75500 66.0
9.76500 51.0
9.77500 53.0
9.78500 47.0
9.79500 86.0
9.80500 76.0
9.81500 61.0
9.82500 48.0
9.83500 58.0
9.84500 88.0
9.85500 66.0
9.86500 53.0
9.87500 66.0
9.88500 60.0
9.89500 80.0
9.90500 50.0
9.91500 78.0
9.92500 93.0
9.93500 73.0
9.94500 71.0
9.95500 85.0
9.96500 68.0
9.97500 71.0
9.98500 55.0
9.99500 59.0
10.00500 44.0
10.01500 66.0
10.02500 54.0
10.03500 44.0
10.04500 67.0
10.05500 80.0
10.06500 80.0
10.07500 70.0
10.08500 83.0
10.09500 64.0
10.10500 69.0
10.11500 83.0
10.12500 71.0
10.13500 51.0
10.14500 41.0
10.15500 53.0
10.16500 40.0
10.17500 44.0
10.18500 64.0
10.19500 53.0
10.20500 46.0
10.21500 75.0
10.22500 86.0
10.23500 72.0
10.24500 63.0
10.25500 39.0
10.26500 52.0
10.27500 41.0
10.28500 66.0
10.29500 48.0
10.30500 38.0
10.31500 37.0
10.32500 51.0
10.33500 41.0
10.34500 47.0
10.35500 35.0
10.36500 34.0
10.37500 28.0
10.38500 45.0
10.39500 38.0
10.40500 37.0
10.41500 38.0
10.42500 33.0
10.43500 43.0
10.44500 81.0
10.45500 53.0
10.46500 60.0
10.47500 51.0
10.48500 54.0
10.49500 57.0
10.50500 38.0
10.51500 46.0
10.52500 59.0
10.53500 63.0
10.54500 79.0
10.55500 68.0
10.56500 65.0
10.57500 52.0
10.58500 63.0
10.59500 49.0
10.60500 49.0
10.61500 56.0
10.62500 49.0
10.63500 51.0
10.64500 36.0
10.65500 48.0
10.66500 69.0
10.67500 47.0
10.68500 42.0
10.69500 41.0
10.70500 48.0
10.71500 35.0
10.72500 28.0
10.73500 50.0
10.74500 55.0
10.75500 38.0
10.76500 25.0
10.77500 30.0
10.78500 31.0
10.79500 46.0
10.80500 41.0
10.81500 33.0
10.82500 47.0
10.83500 45.0
10.84500 48.0
10.85500 52.0
10.86500 43.0
10.87500 45.0
10.88500 44.0
10.89500 48.0
10.90500 41.0
10.91500 41.0
10.92500 47.0
10.93500 72.0
10.94500 51.0
10.95500 54.0
10.96500 42.0
10.97500 46.0
10.98500 28.0
10.99500 46.0
11.00500 24.0
11.01500 31.0
11.02500 49.0
11.03500 46.0
11.04500 49.0
11.05500 40.0
11.06500 32.0
11.07500 42.0
11.08500 44.0
11.09500 58.0
11.10500 79.0
11.11500 54.0
11.12500 45.0
11.13500 42.0
11.14500 29.0
11.15500 47.0
11.16500 39.0
11.17500 31.0
11.18500 36.0
11.19500 53.0
11.20500 53.0
11.21500 63.0
11.22500 55.0
11.23500 54.0
11.24500 31.0
11.25500 41.0
11.26500 48.0
11.27500 46.0
11.28500 34.0
11.29500 36.0
11.30500 38.0
11.31500 28.0
11.32500 48.0
11.33500 21.0
11.34500 28.0
11.35500 27.0
11.36500 39.0
11.37500 35.0
11.38500 32.0
11.39500 29.0
11.40500 32.0
11.41500 26.0
11.42500 22.0
11.43500 42.0
11.44500 42.0
11.45500 23.0
11.46500 21.0
11.47500 24.0
11.48500 48.0
11.49500 26.0
11.50500 25.0
11.51500 20.0
11.52500 25.0
11.53500 35.0
11.54500 25.0
11.55500 21.0
11.56500 23.0
11.57500 27.0
11.58500 29.0
11.59500 26.0
11.60500 21.0
11.61500 21.0
11.62500 11.0
11.63500 19.0
11.64500 28.0
11.65500 22.0
11.66500 25.0
11.67500 33.0
11.68500 17.0
11.69500 15.0
11.70500 31.0
11.71500 30.0
11.72500 22.0
11.73500 15.0
11.74500 26.0
11.75500 25.0
11.76500 24.0
11.77500 23.0
11.78500 23.0
11.79500 36.0
11.80500 24.0
11.81500 37.0
11.82500 40.0
11.83500 42.0
11.84500 49.0
11.85500 32.0
11.86500 46.0
11.87500 44.0
11.88500 42.0
11.89500 42.0
11.90500 35.0
11.91500 45.0
11.92500 38.0
11.93500 30.0
11.94500 28.0
11.95500 37.0
11.96500 19.0
11.97500 34.0
11.98500 25.0
11.99500 28.0
