0.00500 43187320.0
0.01500 48054796.0
0.02500 39904204.0
0.03500 25689976.0
0.04500 13365352.0
0.05500 6009121.0
0.06500 3270098.0
0.07500 2931682.0
0.08500 3162687.0
0.09500 3510630.0
0.10500 3861087.0
0.11500 4237853.0
0.12500 4608611.0
0.13500 4975868.0
0.14500 5337014.0
0.15500 5661915.0
0.16500 6010840.0
0.17500 6341011.0
0.18500 6659633.0
0.19500 7003034.0
0.20500 7356644.0
0.21500 7689649.0
0.22500 8037449.0
0.23500 8344941.0
0.24500 8664434.0
0.25500 8992649.0
0.26500 9249464.0
0.27500 9566153.0
0.28500 9889629.0
0.29500 10190791.0
0.30500 10471297.0
0.31500 10791778.0
0.32500 11052319.0
0.33500 11344876.0
0.34500 11622944.0
0.35500 11898038.0
0.36500 12135005.0
0.37500 12417551.0
0.38500 12713496.0
0.39500 12972226.0
0.40500 13242261.0
0.41500 13467331.0
0.42500 13702368.0
0.43500 13862371.0
0.44500 14155741.0
0.45500 14315180.0
0.46500 14602025.0
0.47500 14843061.0
0.48500 15005967.0
0.49500 15179456.0
0.50500 15455993.0
0.51500 15598230.0
0.52500 15758039.0
0.53500 15934627.0
0.54500 16037225.0
0.55500 16234938.0
0.56500 16481384.0
0.57500 16633718.0
0.58500 16814504.0
0.59500 16980762.0
0.60500 17142470.0
0.61500 17262850.0
0.62500 17332854.0
0.63500 17261700.0
0.64500 17217512.0
0.65500 16926404.0
0.66500 16571441.0
0.67500 15883352.0
0.68500 14792482.0
0.69500 13091698.0
0.70500 11051133.0
0.71500 9118401.0
0.72500 7492488.0
0.73500 6314402.0
0.74500 5464202.0
0.75500 4777182.0
0.76500 4217416.0
0.77500 3774176.0
0.78500 3404239.0
0.79500 3090913.0
0.80500 2815407.0
0.81500 2582616.0
0.82500 2369419.0
0.83500 2181129.0
0.84500 2022627.0
0.85500 1878050.0
0.86500 1751095.0
0.87500 1643618.0
0.88500 1532434.0
0.89500 1427313.0
0.90500 1342535.0
0.91500 1255041.0
0.92500 1184767.0
0.93500 1121892.0
0.94500 1064165.0
0.95500 1000576.0
0.96500 951343.0
0.97500 902693.0
0.98500 852613.0
0.99500 810061.0
1.00500 773930.0
1.01500 740866.0
1.02500 709878.0
1.03500 672041.0
1.04500 640404.0
1.05500 614103.0
1.06500 587156.0
1.07500 563558.0
1.08500 536854.0
1.09500 514278.0
1.10500 493115.0
1.11500 474266.0
1.12500 453266.0
1.13500 436040.0
1.14500 420631.0
1.15500 405743.0
1.16500 389020.0
1.17500 375566.0
1.18500 359310.0
1.19500 347787.0
1.20500 336160.0
1.21500 326323.0
1.22500 314635.0
1.23500 301763.0
1.24500 294804.0
1.25500 285641.0
1.26500 275871.0
1.27500 271224.0
1.28500 260152.0
1.29500 251943.0
1.30500 244625.0
1.31500 239328.0
1.32500 234652.0
1.33500 228008.0
1.34500 219971.0
1.35500 212435.0
1.36500 207365.0
1.37500 203611.0
1.38500 198377.0
1.39500 192005.0
1.40500 187517.0
1.41500 182811.0
1.42500 179676.0
1.43500 175712.0
1.44500 173072.0
1.45500 170362.0
1.46500 165157.0
1.47500 163258.0
1.48500 160250.0
1.49500 159556.0
1.50500 159206.0
1.51500 155389.0
1.52500 150342.0
1.53500 147803.0
1.54500 142748.0
1.55500 139511.0
1.56500 138339.0
1.57500 137502.0
1.58500 135970.0
1.59500 132959.0
1.60500 131370.0
1.61500 131003.0
1.62500 129712.0
1.63500 128728.0
1.64500 128226.0
1.65500 127816.0
1.66500 127230.0
1.67500 126482.0
1.68500 126966.0
1.69500 129429.0
1.70500 129392.0
1.71500 134005.0
1.72500 135356.0
1.73500 137313.0
1.74500 138747.0
1.75500 140924.0
1.76500 143787.0
1.77500 147477.0
1.78500 154840.0
1.79500 159859.0
1.80500 167492.0
1.81500 176052.0
1.82500 183649.0
1.83500 191289.0
1.84500 199256.0
1.85500 210575.0
1.86500 220315.0
1.87500 237128.0
1.88500 258896.0
1.89500 285980.0
1.90500 319236.0
1.91500 363027.0
1.92500 424091.0
1.93500 494103.0
1.94500 590783.0
1.95500 729176.0
1.96500 967813.0
1.97500 1341376.0
1.98500 2044317.0
1.99500 3608548.0
2.00500 6889183.0
2.01500 11835554.0
2.02500 15926077.0
2.03500 16211062.0
2.04500 12174913.0
2.05500 6793854.0
2.06500 3041097.0
2.07500 1401396.0
2.08500 734645.0
2.09500 441064.0
2.10500 297685.0
2.11500 209867.0
2.12500 152950.0
2.13500 118653.0
2.14500 94707.0
2.15500 75704.0
2.16500 60745.0
2.17500 50621.0
2.18500 42594.0
2.19500 35953.0
2.20500 30796.0
2.21500 27195.0
2.22500 23547.0
2.23500 20892.0
2.24500 18348.0
2.25500 16845.0
2.26500 15194.0
2.27500 13628.0
2.28500 11560.0
2.29500 10698.0
2.30500 9482.0
2.31500 8544.0
2.32500 7906.0
2.33500 7444.0
2.34500 7110.0
2.35500 6625.0
2.36500 6148.0
2.37500 5631.0
2.38500 5277.0
2.39500 4832.0
2.40500 4441.0
2.41500 4125.0
2.42500 3917.0
2.43500 3610.0
2.44500 3264.0
2.45500 3040.0
2.46500 2981.0
2.47500 2735.0
2.48500 2658.0
2.49500 2662.0
2.50500 2563.0
2.51500 2563.0
2.52500 2379.0
2.53500 2334.0
2.54500 2311.0
2.55500 2369.0
2.56500 2361.0
2.57500 2344.0
2.58500 2351.0
2.59500 2134.0
2.60500 2021.0
2.61500 2031.0
2.62500 1943.0
2.63500 1974.0
2.64500 1853.0
2.65500 1861.0
2.66500 1730.0
2.67500 1689.0
2.68500 1631.0
2.69500 1709.0
2.70500 1641.0
2.71500 1672.0
2.72500 1550.0
2.73500 1494.0
2.74500 1517.0
2.75500 1598.0
2.76500 1661.0
2.77500 1695.0
2.78500 1715.0
2.79500 1668.0
2.80500 1449.0
2.81500 1453.0
2.82500 1364.0
2.83500 1357.0
2.84500 1346.0
2.85500 1284.0
2.86500 1218.0
2.87500 1306.0
2.88500 1234.0
2.89500 1202.0
2.90500 1168.0
2.91500 1205.0
2.92500 1239.0
2.93500 1198.0
2.94500 1121.0
2.95500 1169.0
2.96500 1154.0
2.97500 1224.0
2.98500 1152.0
2.99500 1291.0
3.00500 1288.0
3.01500 1279.0
3.02500 1161.0
3.03500 1170.0
3.04500 1262.0
3.05500 1267.0
3.06500 1266.0
3.07500 1201.0
3.08500 1204.0
3.09500 1205.0
3.10500 1243.0
3.11500 1264.0
3.12500 1287.0
3.13500 1309.0
3.14500 1290.0
3.15500 1326.0
3.16500 1247.0
3.17500 1288.0
3.18500 1210.0
3.19500 1290.0
3.20500 1327.0
3.21500 1338.0
3.22500 1382.0
3.23500 1488.0
3.24500 1409.0
3.25500 1407.0
3.26500 1435.0
3.27500 1384.0
3.28500 1386.0
3.29500 1297.0
3.30500 1384.0
3.31500 1292.0
3.32500 1309.0
3.33500 1335.0
3.34500 1395.0
3.35500 1291.0
3.36500 1385.0
3.37500 1391.0
3.38500 1330.0
3.39500 1360.0
3.40500 1340.0
3.41500 1395.0
3.42500 1418.0
3.43500 1361.0
3.44500 1448.0
3.45500 1355.0
3.46500 1371.0
3.47500 1334.0
3.48500 1437.0
3.49500 1572.0
3.50500 1648.0
3.51500 1526.0
3.52500 1448.0
3.53500 1376.0
3.54500 1406.0
3.55500 1264.0
3.56500 1352.0
3.57500 1353.0
3.58500 1385.0
3.59500 1308.0
3.60500 1288.0
3.61500 1214.0
3.62500 1143.0
3.63500 1145.0
3.64500 1126.0
3.65500 1236.0
3.66500 1262.0
3.67500 1330.0
3.68500 1401.0
3.69500 1646.0
3.70500 1850.0
3.71500 1981.0
3.72500 2292.0
3.73500 2610.0
3.74500 3173.0
3.75500 3898.0
3.76500 4807.0
3.77500 5531.0
3.78500 7181.0
3.79500 9645.0
3.80500 13620.0
3.81500 19302.0
3.82500 29072.0
3.83500 49528.0
3.84500 115485.0
3.85500 277698.0
3.86500 530994.0
3.87500 698309.0
3.88500 633855.0
3.89500 404997.0
3.90500 218415.0
3.91500 114633.0
3.92500 63965.0
3.93500 36309.0
3.94500 21421.0
3.95500 14275.0
3.96500 10456.0
3.97500 8403.0
3.98500 7120.0
3.99500 6108.0
4.00500 5265.0
4.01500 4573.0
4.02500 4260.0
4.03500 3854.0
4.04500 3510.0
4.05500 3186.0
4.06500 3091.0
4.07500 2743.0
4.08500 2685.0
4.09500 2343.0
4.10500 2348.0
4.11500 2248.0
4.12500 2163.0
4.13500 2142.0
4.14500 2032.0
4.15500 2081.0
4.16500 2013.0
4.17500 1820.0
4.18500 1839.0
4.19500 1892.0
4.20500 1766.0
4.21500 1674.0
4.22500 1703.0
4.23500 1699.0
4.24500 1679.0
4.25500 1563.0
4.26500 1555.0
4.27500 1468.0
4.28500 1518.0
4.29500 1472.0
4.30500 1317.0
4.31500 1245.0
4.32500 1213.0
4.33500 1180.0
4.34500 1201.0
4.35500 1232.0
4.36500 1218.0
4.37500 1217.0
4.38500 1116.0
4.39500 1072.0
4.40500 1094.0
4.41500 1000.0
4.42500 997.0
4.43500 973.0
4.44500 961.0
4.45500 976.0
4.46500 917.0
4.47500 953.0
4.48500 1048.0
4.49500 975.0
4.50500 1031.0
4.51500 983.0
4.52500 975.0
4.53500 908.0
4.54500 941.0
4.55500 922.0
4.56500 945.0
4.57500 902.0
4.58500 945.0
4.59500 916.0
4.60500 895.0
4.61500 824.0
4.62500 847.0
4.63500 892.0
4.64500 869.0
4.65500 898.0
4.66500 839.0
4.67500 820.0
4.68500 703.0
4.69500 738.0
4.70500 761.0
4.71500 743.0
4.72500 726.0
4.73500 768.0
4.74500 819.0
4.75500 742.0
4.76500 718.0
4.77500 811.0
4.78500 795.0
4.79500 701.0
4.80500 779.0
4.81500 727.0
4.82500 738.0
4.83500 714.0
4.84500 618.0
4.85500 683.0
4.86500 656.0
4.87500 701.0
4.88500 740.0
4.89500 729.0
4.90500 825.0
4.91500 795.0
4.92500 711.0
4.93500 710.0
4.94500 798.0
4.95500 743.0
4.96500 733.0
4.97500 742.0
4.98500 734.0
4.99500 754.0
5.00500 729.0
5.01500 733.0
5.02500 722.0
5.03500 758.0
5.04500 709.0
5.05500 749.0
5.06500 723.0
5.07500 680.0
5.08500 701.0
5.09500 619.0
5.10500 682.0
5.11500 674.0
5.12500 652.0
5.13500 735.0
5.14500 781.0
5.15500 727.0
5.16500 716.0
5.17500 767.0
5.18500 743.0
5.19500 735.0
5.20500 789.0
5.21500 750.0
5.22500 708.0
5.23500 647.0
5.24500 583.0
5.25500 592.0
5.26500 620.0
5.27500 634.0
5.28500 664.0
5.29500 695.0
5.30500 608.0
5.31500 639.0
5.32500 548.0
5.33500 599.0
5.34500 579.0
5.35500 566.0
5.36500 527.0
5.37500 533.0
5.38500 497.0
5.39500 496.0
5.40500 509.0
5.41500 469.0
5.42500 551.0
5.43500 522.0
5.44500 496.0
5.45500 493.0
5.46500 504.0
5.47500 501.0
5.48500 499.0
5.49500 514.0
5.50500 623.0
5.51500 616.0
5.52500 679.0
5.53500 677.0
5.54500 705.0
5.55500 845.0
5.56500 850.0
5.57500 924.0
5.58500 944.0
5.59500 1003.0
5.60500 1161.0
5.61500 1264.0
5.62500 1370.0
5.63500 1645.0
5.64500 1777.0
5.65500 1922.0
5.66500 2188.0
5.67500 2432.0
5.68500 2869.0
5.69500 3333.0
5.70500 4471.0
5.71500 5898.0
5.72500 9657.0
5.73500 19760.0
5.74500 38369.0
5.75500 56886.0
5.76500 62640.0
5.77500 50998.0
5.78500 33510.0
5.79500 19690.0
5.80500 11994.0
5.81500 7559.0
5.82500 4921.0
5.83500 3049.0
5.84500 1728.0
5.85500 1014.0
5.86500 668.0
5.87500 443.0
5.88500 420.0
5.89500 333.0
5.90500 293.0
5.91500 270.0
5.92500 246.0
5.93500 234.0
5.94500 205.0
5.95500 208.0
5.96500 193.0
5.97500 204.0
5.98500 132.0
5.99500 107.0
6.00500 124.0
6.01500 183.0
6.02500 167.0
6.03500 210.0
6.04500 209.0
6.05500 236.0
6.06500 203.0
6.07500 190.0
6.08500 232.0
6.09500 214.0
6.10500 249.0
6.11500 199.0
6.12500 175.0
6.13500 179.0
6.14500 154.0
6.15500 180.0
6.16500 141.0
6.17500 147.0
6.18500 147.0
6.19500 158.0
6.20500 155.0
6.21500 147.0
6.22500 147.0
6.23500 186.0
6.24500 175.0
6.25500 162.0
6.26500 171.0
6.27500 152.0
6.28500 161.0
6.29500 187.0
6.30500 168.0
6.31500 141.0
6.32500 187.0
6.33500 145.0
6.34500 129.0
6.35500 107.0
6.36500 136.0
6.37500 154.0
6.38500 162.0
6.39500 158.0
6.40500 171.0
6.41500 143.0
6.42500 141.0
6.43500 136.0
6.44500 148.0
6.45500 165.0
6.46500 146.0
6.47500 100.0
6.48500 105.0
6.49500 127.0
6.50500 108.0
6.51500 121.0
6.52500 120.0
6.53500 138.0
6.54500 111.0
6.55500 143.0
6.56500 117.0
6.57500 166.0
6.58500 121.0
6.59500 133.0
6.60500 122.0
6.61500 175.0
6.62500 137.0
6.63500 138.0
6.64500 132.0
6.65500 89.0
6.66500 76.0
6.67500 95.0
6.68500 72.0
6.69500 65.0
6.70500 76.0
6.71500 69.0
6.72500 61.0
6.73500 94.0
6.74500 109.0
6.75500 98.0
6.76500 76.0
6.77500 66.0
6.78500 67.0
6.79500 78.0
6.80500 85.0
6.81500 104.0
6.82500 97.0
6.83500 107.0
6.84500 94.0
6.85500 86.0
6.86500 111.0
6.87500 123.0
6.88500 132.0
6.89500 163.0
6.90500 147.0
6.91500 154.0
6.92500 143.0
6.93500 149.0
6.94500 137.0
6.95500 144.0
6.96500 143.0
6.97500 100.0
6.98500 118.0
6.99500 155.0
7.00500 127.0
7.01500 165.0
7.02500 172.0
7.03500 191.0
7.04500 183.0
7.05500 164.0
7.06500 164.0
7.07500 212.0
7.08500 200.0
7.09500 232.0
7.10500 212.0
7.11500 188.0
7.12500 183.0
7.13500 198.0
7.14500 201.0
7.15500 168.0
7.16500 177.0
7.17500 171.0
7.18500 172.0
7.19500 176.0
7.20500 206.0
7.21500 166.0
7.22500 185.0
7.23500 192.0
7.24500 191.0
7.25500 205.0
7.26500 173.0
7.27500 225.0
7.28500 223.0
7.29500 224.0
7.30500 240.0
7.31500 209.0
7.32500 222.0
7.33500 230.0
7.34500 233.0
7.35500 217.0
7.36500 206.0
7.37500 259.0
7.38500 273.0
7.39500 263.0
7.40500 293.0
7.41500 262.0
7.42500 351.0
7.43500 359.0
7.44500 295.0
7.45500 298.0
7.46500 371.0
7.47500 372.0
7.48500 416.0
7.49500 466.0
7.50500 428.0
7.51500 444.0
7.52500 512.0
7.53500 568.0
7.54500 657.0
7.55500 765.0
7.56500 828.0
7.57500 899.0
7.58500 1064.0
7.59500 1470.0
7.60500 2063.0
7.61500 2921.0
7.62500 5698.0
7.63500 11585.0
7.64500 20057.0
7.65500 25923.0
7.66500 26403.0
7.67500 22069.0
7.68500 15905.0
7.69500 10425.0
7.70500 6816.0
7.71500 4722.0
7.72500 3382.0
7.73500 2621.0
7.74500 1862.0
7.75500 1267.0
7.76500 889.0
7.77500 617.0
7.78500 619.0
7.79500 463.0
7.80500 435.0
7.81500 356.0
7.82500 313.0
7.83500 294.0
7.84500 273.0
7.85500 239.0
7.86500 246.0
7.87500 254.0
7.88500 245.0
7.89500 202.0
7.90500 170.0
7.91500 185.0
7.92500 200.0
7.93500 189.0
7.94500 191.0
7.95500 200.0
7.96500 177.0
7.97500 149.0
7.98500 201.0
7.99500 129.0
8.00500 213.0
8.01500 189.0
8.02500 151.0
8.03500 162.0
8.04500 175.0
8.05500 160.0
8.06500 140.0
8.07500 164.0
8.08500 150.0
8.09500 130.0
8.10500 153.0
8.11500 178.0
8.12500 141.0
8.13500 144.0
8.14500 200.0
8.15500 229.0
8.16500 136.0
8.17500 172.0
8.18500 157.0
8.19500 183.0
8.20500 191.0
8.21500 155.0
8.22500 174.0
8.23500 200.0
8.24500 301.0
8.25500 222.0
8.26500 140.0
8.27500 200.0
8.28500 215.0
8.29500 181.0
8.30500 147.0
8.31500 155.0
8.32500 137.0
8.33500 155.0
8.34500 156.0
8.35500 120.0
8.36500 106.0
8.37500 132.0
8.38500 83.0
8.39500 121.0
8.40500 155.0
8.41500 137.0
8.42500 141.0
8.43500 131.0
8.44500 153.0
8.45500 133.0
8.46500 124.0
8.47500 126.0
8.48500 147.0
8.49500 163.0
8.50500 175.0
8.51500 158.0
8.52500 119.0
8.53500 165.0
8.54500 159.0
8.55500 127.0
8.56500 174.0
8.57500 191.0
8.58500 168.0
8.59500 195.0
8.60500 202.0
8.61500 219.0
8.62500 197.0
8.63500 208.0
8.64500 197.0
8.65500 235.0
8.66500 143.0
8.67500 147.0
8.68500 170.0
8.69500 153.0
8.70500 141.0
8.71500 147.0
8.72500 116.0
8.73500 144.0
8.74500 112.0
8.75500 115.0
8.76500 109.0
8.77500 101.0
8.78500 90.0
8.79500 134.0
8.80500 166.0
8.81500 181.0
8.82500 193.0
8.83500 189.0
8.84500 210.0
8.85500 223.0
8.86500 210.0
8.87500 232.0
8.88500 275.0
8.89500 261.0
8.90500 217.0
8.91500 163.0
8.92500 184.0
8.93500 167.0
8.94500 218.0
8.95500 216.0
8.96500 191.0
8.97500 217.0
8.98500 199.0
8.99500 251.0
9.00500 316.0
9.01500 300.0
9.02500 370.0
9.03500 251.0
9.04500 313.0
9.05500 271.0
9.06500 359.0
9.07500 314.0
9.08500 259.0
9.09500 243.0
9.10500 318.0
9.11500 250.0
9.12500 281.0
9.13500 270.0
9.14500 357.0
9.15500 456.0
9.16500 351.0
9.17500 359.0
9.18500 343.0
9.19500 319.0
9.20500 247.0
9.21500 252.0
9.22500 281.0
9.23500 283.0
9.24500 246.0
9.25500 279.0
9.26500 321.0
9.27500 322.0
9.28500 492.0
9.29500 398.0
9.30500 423.0
9.31500 422.0
9.32500 327.0
9.33500 282.0
9.34500 251.0
9.35500 254.0
9.36500 267.0
9.37500 231.0
9.38500 215.0
9.39500 240.0
9.40500 277.0
9.41500 282.0
9.42500 280.0
9.43500 332.0
9.44500 317.0
9.45500 308.0
9.46500 263.0
9.47500 324.0
9.48500 371.0
9.49500 507.0
9.50500 541.0
9.51500 566.0
9.52500 734.0
9.53500 1043.0
9.54500 1504.0
9.55500 1896.0
9.56500 2157.0
9.57500 1827.0
9.58500 1564.0
9.59500 1225.0
9.60500 952.0
9.61500 757.0
9.62500 575.0
9.63500 415.0
9.64500 413.0
9.65500 392.0
9.66500 325.0
9.67500 321.0
9.68500 282.0
9.69500 255.0
9.70500 274.0
9.71500 242.0
9.72500 232.0
9.73500 205.0
9.74500 177.0
9.75500 311.0
9.76500 464.0
9.77500 405.0
9.78500 326.0
9.79500 320.0
9.80500 346.0
9.81500 358.0
9.82500 334.0
9.83500 291.0
9.84500 173.0
9.85500 244.0
9.86500 291.0
9.87500 306.0
9.88500 290.0
9.89500 254.0
9.90500 315.0
9.91500 284.0
9.92500 257.0
9.93500 269.0
9.94500 320.0
9.95500 336.0
9.96500 253.0
9.97500 312.0
9.98500 354.0
9.99500 461.0
10.00500 432.0
10.01500 418.0
10.02500 267.0
10.03500 400.0
10.04500 378.0
10.05500 368.0
10.06500 265.0
10.07500 295.0
10.08500 312.0
10.09500 287.0
10.10500 262.0
10.11500 272.0
10.12500 247.0
10.13500 222.0
10.14500 215.0
10.15500 171.0
10.16500 184.0
10.17500 219.0
10.18500 171.0
10.19500 173.0
10.20500 139.0
10.21500 187.0
10.22500 177.0
10.23500 190.0
10.24500 195.0
10.25500 186.0
10.26500 206.0
10.27500 245.0
10.28500 272.0
10.29500 335.0
10.30500 353.0
10.31500 237.0
10.32500 239.0
10.33500 269.0
10.34500 331.0
10.35500 223.0
10.36500 248.0
10.37500 235.0
10.38500 334.0
10.39500 344.0
10.40500 356.0
10.41500 276.0
10.42500 232.0
10.43500 248.0
10.44500 246.0
10.45500 243.0
10.46500 198.0
10.47500 153.0
10.48500 184.0
10.49500 196.0
10.50500 188.0
10.51500 236.0
10.52500 184.0
10.53500 228.0
10.54500 223.0
10.55500 186.0
10.56500 224.0
10.57500 221.0
10.58500 312.0
10.59500 189.0
10.60500 192.0
10.61500 175.0
10.62500 143.0
10.63500 155.0
10.64500 154.0
10.65500 191.0
10.66500 218.0
10.67500 215.0
10.68500 268.0
10.69500 193.0
10.70500 183.0
10.71500 244.0
10.72500 213.0
10.73500 243.0
10.74500 333.0
10.75500 334.0
10.76500 219.0
10.77500 230.0
10.78500 235.0
10.79500 253.0
10.80500 328.0
10.81500 306.0
10.82500 249.0
10.83500 257.0
10.84500 227.0
10.85500 220.0
10.86500 178.0
10.87500 182.0
10.88500 188.0
10.89500 166.0
10.90500 171.0
10.91500 224.0
10.92500 228.0
10.93500 207.0
10.94500 222.0
10.95500 214.0
10.96500 252.0
10.97500 214.0
10.98500 196.0
10.99500 187.0
11.00500 164.0
11.01500 165.0
11.02500 197.0
11.03500 207.0
11.04500 202.0
11.05500 210.0
11.06500 220.0
11.07500 227.0
11.08500 239.0
11.09500 188.0
11.10500 207.0
11.11500 223.0
11.12500 136.0
11.13500 192.0
11.14500 182.0
11.15500 155.0
11.16500 144.0
11.17500 134.0
11.18500 144.0
11.19500 181.0
11.20500 204.0
11.21500 157.0
11.22500 196.0
11.23500 166.0
11.24500 195.0
11.25500 191.0
11.26500 109.0
11.27500 120.0
11.28500 137.0
11.29500 182.0
11.30500 215.0
11.31500 193.0
11.32500 191.0
11.33500 210.0
11.34500 175.0
11.35500 216.0
11.36500 341.0
11.37500 376.0
11.38500 354.0
11.39500 355.0
11.40500 295.0
11.41500 289.0
11.42500 367.0
11.43500 452.0
11.44500 551.0
11.45500 737.0
11.46500 885.0
11.47500 828.0
11.48500 883.0
11.49500 810.0
11.50500 778.0
11.51500 602.0
11.52500 540.0
11.53500 433.0
11.54500 444.0
11.55500 379.0
11.56500 412.0
11.57500 368.0
11.58500 301.0
11.59500 176.0
11.60500 169.0
11.61500 180.0
11.62500 197.0
11.63500 183.0
11.64500 148.0
11.65500 127.0
11.66500 119.0
11.67500 104.0
11.68500 104.0
11.69500 102.0
11.70500 101.0
11.71500 89.0
11.72500 68.0
11.73500 94.0
11.74500 97.0
11.75500 115.0
11.76500 126.0
11.77500 97.0
11.78500 119.0
11.79500 121.0
11.80500 91.0
11.81500 105.0
11.82500 113.0
11.83500 103.0
11.84500 88.0
11.85500 85.0
11.86500 107.0
11.87500 102.0
11.88500 90.0
11.89500 105.0
11.90500 90.0
11.91500 145.0
11.92500 128.0
11.93500 161.0
11.94500 138.0
11.95500 129.0
11.96500 139.0
11.97500 111.0
11.98500 107.0
11.99500 125.0
