0.00500 39916188.0
0.01500 44836944.0
0.02500 36463200.0
0.03500 23355372.0
0.04500 12800116.0
0.05500 6865387.0
0.06500 4544372.0
0.07500 4413894.0
0.08500 4863008.0
0.09500 5363211.0
0.10500 6015362.0
0.11500 6442295.0
0.12500 7086930.0
0.13500 7667978.0
0.14500 8064984.0
0.15500 8736693.0
0.16500 9140304.0
0.17500 9757934.0
0.18500 10478717.0
0.19500 10803932.0
0.20500 11486009.0
0.21500 11901903.0
0.22500 12409979.0
0.23500 13055363.0
0.24500 13400147.0
0.25500 14049655.0
0.26500 14426688.0
0.27500 14901240.0
0.28500 15720241.0
0.29500 16029889.0
0.30500 16598843.0
0.31500 16962528.0
0.32500 17287182.0
0.33500 18068298.0
0.34500 18368288.0
0.35500 18880100.0
0.36500 19351400.0
0.37500 19517448.0
0.38500 20237832.0
0.39500 20603280.0
0.40500 21016488.0
0.41500 21645780.0
0.42500 21957412.0
0.43500 22448880.0
0.44500 22666464.0
0.45500 22910696.0
0.46500 23536644.0
0.47500 23715962.0
0.48500 24147960.0
0.49500 24449534.0
0.50500 24651502.0
0.51500 25227376.0
0.52500 25292634.0
0.53500 25457466.0
0.54500 25959216.0
0.55500 25940484.0
0.56500 26525366.0
0.57500 26588988.0
0.58500 26610178.0
0.59500 26996630.0
0.60500 26952182.0
0.61500 27169472.0
0.62500 27191884.0
0.63500 27011220.0
0.64500 26960918.0
0.65500 26352928.0
0.66500 25524446.0
0.67500 24110526.0
0.68500 21910396.0
0.69500 19265192.0
0.70500 16246764.0
0.71500 13507752.0
0.72500 11308084.0
0.73500 9494557.0
0.74500 8264376.0
0.75500 7225551.0
0.76500 6353241.0
0.77500 5676690.0
0.78500 5042079.0
0.79500 4569424.0
0.80500 4164117.0
0.81500 3769683.0
0.82500 3451203.0
0.83500 3149339.0
0.84500 2912246.0
0.85500 2706656.0
0.86500 2481505.0
0.87500 2332200.0
0.88500 2137531.0
0.89500 1993118.0
0.90500 1875825.0
0.91500 1742751.0
0.92500 1645096.0
0.93500 1538982.0
0.94500 1450201.0
0.95500 1368457.0
0.96500 1279500.0
0.97500 1215503.0
0.98500 1149369.0
0.99500 1077192.0
1.00500 1020220.0
1.01500 957305.0
1.02500 903219.0
1.03500 849971.0
1.04500 798179.0
1.05500 765615.0
1.06500 725871.0
1.07500 692146.0
1.08500 660081.0
1.09500 626692.0
1.10500 595020.0
1.11500 560587.0
1.12500 533002.0
1.13500 513373.0
1.14500 487101.0
1.15500 463267.0
1.16500 439583.0
1.17500 419016.0
1.18500 404664.0
1.19500 390220.0
1.20500 373194.0
1.21500 355145.0
1.22500 351263.0
1.23500 324487.0
1.24500 312738.0
1.25500 305963.0
1.26500 293394.0
1.27500 278735.0
1.28500 269749.0
1.29500 255425.0
1.30500 243967.0
1.31500 241721.0
1.32500 232120.0
1.33500 223685.0
1.34500 222417.0
1.35500 214604.0
1.36500 200381.0
1.37500 193455.0
1.38500 185825.0
1.39500 175181.0
1.40500 169279.0
1.41500 165651.0
1.42500 155338.0
1.43500 150138.0
1.44500 151640.0
1.45500 146463.0
1.46500 139560.0
1.47500 140614.0
1.48500 140180.0
1.49500 131133.0
1.50500 128197.0
1.51500 128075.0
1.52500 122203.0
1.53500 120502.0
1.54500 124217.0
1.55500 120275.0
1.56500 114457.0
1.57500 117745.0
1.58500 119696.0
1.59500 110751.0
1.60500 109190.0
1.61500 113695.0
1.62500 108516.0
1.63500 103822.0
1.64500 107921.0
1.65500 107060.0
1.66500 102744.0
1.67500 107373.0
1.68500 113384.0
1.69500 107968.0
1.70500 107913.0
1.71500 115419.0
1.72500 114544.0
1.73500 110709.0
1.74500 118844.0
1.75500 126599.0
1.76500 121929.0
1.77500 126629.0
1.78500 142503.0
1.79500 145856.0
1.80500 142315.0
1.81500 157099.0
1.82500 170709.0
1.83500 167229.0
1.84500 175586.0
1.85500 199173.0
1.86500 211034.0
1.87500 223329.0
1.88500 260885.0
1.89500 297902.0
1.90500 316739.0
1.91500 373393.0
1.92500 466891.0
1.93500 537645.0
1.94500 671465.0
1.95500 941627.0
1.96500 1320106.0
1.97500 2199293.0
1.98500 4435515.0
1.99500 8436834.0
2.00500 12710977.0
2.01500 15173138.0
2.02500 14650182.0
2.03500 11341301.0
2.04500 6981911.0
2.05500 3671609.0
2.06500 2115417.0
2.07500 1516774.0
2.08500 1081197.0
2.09500 774105.0
2.10500 647907.0
2.11500 537664.0
2.12500 414161.0
2.13500 350655.0
2.14500 323440.0
2.15500 270715.0
2.16500 223962.0
2.17500 203795.0
2.18500 187477.0
2.19500 158392.0
2.20500 136680.0
2.21500 130637.0
2.22500 117614.0
2.23500 101354.0
2.24500 94789.0
2.25500 90575.0
2.26500 81400.0
2.27500 72457.0
2.28500 71793.0
2.29500 67602.0
2.30500 60455.0
2.31500 56997.0
2.32500 55634.0
2.33500 51295.0
2.34500 46580.0
2.35500 45263.0
2.36500 44326.0
2.37500 39672.0
2.38500 37322.0
2.39500 36904.0
2.40500 35212.0
2.41500 32348.0
2.42500 31032.0
2.43500 30870.0
2.44500 29416.0
2.45500 27117.0
2.46500 26366.0
2.47500 25555.0
2.48500 24248.0
2.49500 22744.0
2.50500 22957.0
2.51500 22098.0
2.52500 20429.0
2.53500 19768.0
2.54500 19886.0
2.55500 18618.0
2.56500 17630.0
2.57500 17375.0
2.58500 17012.0
2.59500 15741.0
2.60500 15130.0
2.61500 14930.0
2.62500 14564.0
2.63500 13546.0
2.64500 13367.0
2.65500 13519.0
2.66500 12668.0
2.67500 11942.0
2.68500 12352.0
2.69500 12193.0
2.70500 11315.0
2.71500 11230.0
2.72500 11352.0
2.73500 11017.0
2.74500 10113.0
2.75500 10192.0
2.76500 10068.0
2.77500 9372.0
2.78500 9128.0
2.79500 9384.0
2.80500 9032.0
2.81500 8579.0
2.82500 8359.0
2.83500 8281.0
2.84500 8068.0
2.85500 7340.0
2.86500 7616.0
2.87500 7639.0
2.88500 7004.0
2.89500 6973.0
2.90500 6971.0
2.91500 6990.0
2.92500 6377.0
2.93500 5911.0
2.94500 6201.0
2.95500 5890.0
2.96500 5545.0
2.97500 5632.0
2.98500 5717.0
2.99500 5406.0
3.00500 5076.0
3.01500 5124.0
3.02500 4700.0
3.03500 4673.0
3.04500 4380.0
3.05500 4479.0
3.06500 4490.0
3.07500 4093.0
3.08500 4350.0
3.09500 4435.0
3.10500 4091.0
3.11500 3834.0
3.12500 3875.0
3.13500 3913.0
3.14500 3591.0
3.15500 3612.0
3.16500 3658.0
3.17500 3444.0
3.18500 3381.0
3.19500 3438.0
3.20500 3602.0
3.21500 3405.0
3.22500 3282.0
3.23500 3219.0
3.24500 3287.0
3.25500 3019.0
3.26500 2992.0
3.27500 3204.0
3.28500 3058.0
3.29500 2919.0
3.30500 2906.0
3.31500 2924.0
3.32500 2731.0
3.33500 2666.0
3.34500 2786.0
3.35500 2799.0
3.36500 2520.0
3.37500 2546.0
3.38500 2691.0
3.39500 2590.0
3.40500 2252.0
3.41500 2454.0
3.42500 2414.0
3.43500 2376.0
3.44500 2283.0
3.45500 2469.0
3.46500 2435.0
3.47500 2263.0
3.48500 2231.0
3.49500 2468.0
3.50500 2450.0
3.51500 2236.0
3.52500 2281.0
3.53500 2477.0
3.54500 2212.0
3.55500 2144.0
3.56500 2325.0
3.57500 2431.0
3.58500 2255.0
3.59500 2202.0
3.60500 2287.0
3.61500 2300.0
3.62500 2171.0
3.63500 2241.0
3.64500 2387.0
3.65500 2292.0
3.66500 2141.0
3.67500 2349.0
3.68500 2312.0
3.69500 2166.0
3.70500 2335.0
3.71500 2546.0
3.72500 2834.0
3.73500 2634.0
3.74500 2747.0
3.75500 3078.0
3.76500 3177.0
3.77500 3354.0
3.78500 3835.0
3.79500 4844.0
3.80500 7926.0
3.81500 16705.0
3.82500 30262.0
3.83500 40936.0
3.84500 40972.0
3.85500 30441.0
3.86500 17619.0
3.87500 9090.0
3.88500 5794.0
3.89500 4455.0
3.90500 3169.0
3.91500 2157.0
3.92500 1551.0
3.93500 1247.0
3.94500 1048.0
3.95500 950.0
3.96500 857.0
3.97500 779.0
3.98500 793.0
3.99500 732.0
4.00500 787.0
4.01500 764.0
4.02500 777.0
4.03500 680.0
4.04500 753.0
4.05500 691.0
4.06500 716.0
4.07500 728.0
4.08500 705.0
4.09500 738.0
4.10500 730.0
4.11500 720.0
4.12500 714.0
4.13500 763.0
4.14500 748.0
4.15500 756.0
4.16500 806.0
4.17500 809.0
4.18500 731.0
4.19500 721.0
4.20500 795.0
4.21500 778.0
4.22500 632.0
4.23500 698.0
4.24500 768.0
4.25500 746.0
4.26500 693.0
4.27500 690.0
4.28500 706.0
4.29500 645.0
4.30500 653.0
4.31500 662.0
4.32500 679.0
4.33500 606.0
4.34500 629.0
4.35500 717.0
4.36500 661.0
4.37500 621.0
4.38500 615.0
4.39500 595.0
4.40500 609.0
4.41500 548.0
4.42500 611.0
4.43500 562.0
4.44500 591.0
4.45500 566.0
4.46500 596.0
4.47500 610.0
4.48500 609.0
4.49500 607.0
4.50500 647.0
4.51500 614.0
4.52500 620.0
4.53500 542.0
4.54500 549.0
4.55500 516.0
4.56500 444.0
4.57500 500.0
4.58500 476.0
4.59500 455.0
4.60500 438.0
4.61500 447.0
4.62500 419.0
4.63500 499.0
4.64500 451.0
4.65500 514.0
4.66500 438.0
4.67500 426.0
4.68500 462.0
4.69500 413.0
4.70500 388.0
4.71500 401.0
4.72500 437.0
4.73500 400.0
4.74500 375.0
4.75500 340.0
4.76500 327.0
4.77500 343.0
4.78500 364.0
4.79500 344.0
4.80500 427.0
4.81500 385.0
4.82500 347.0
4.83500 350.0
4.84500 289.0
4.85500 311.0
4.86500 302.0
4.87500 345.0
4.88500 321.0
4.89500 289.0
4.90500 302.0
4.91500 345.0
4.92500 287.0
4.93500 292.0
4.94500 323.0
4.95500 260.0
4.96500 278.0
4.97500 291.0
4.98500 329.0
4.99500 315.0
5.00500 303.0
5.01500 284.0
5.02500 300.0
5.03500 270.0
5.04500 252.0
5.05500 223.0
5.06500 242.0
5.07500 247.0
5.08500 236.0
5.09500 237.0
5.10500 236.0
5.11500 236.0
5.12500 239.0
5.13500 298.0
5.14500 246.0
5.15500 230.0
5.16500 213.0
5.17500 220.0
5.18500 214.0
5.19500 230.0
5.20500 229.0
5.21500 237.0
5.22500 222.0
5.23500 230.0
5.24500 263.0
5.25500 281.0
5.26500 210.0
5.27500 234.0
5.28500 234.0
5.29500 254.0
5.30500 235.0
5.31500 249.0
5.32500 220.0
5.33500 184.0
5.34500 196.0
5.35500 215.0
5.36500 208.0
5.37500 204.0
5.38500 193.0
5.39500 218.0
5.40500 233.0
5.41500 195.0
5.42500 230.0
5.43500 248.0
5.44500 209.0
5.45500 222.0
5.46500 250.0
5.47500 269.0
5.48500 293.0
5.49500 227.0
5.50500 255.0
5.51500 306.0
5.52500 297.0
5.53500 278.0
5.54500 292.0
5.55500 310.0
5.56500 309.0
5.57500 322.0
5.58500 364.0
5.59500 377.0
5.60500 342.0
5.61500 436.0
5.62500 497.0
5.63500 564.0
5.64500 660.0
5.65500 822.0
5.66500 1058.0
5.67500 1549.0
5.68500 2966.0
5.69500 6292.0
5.70500 11445.0
5.71500 16054.0
5.72500 17608.0
5.73500 15351.0
5.74500 11149.0
5.75500 6700.0
5.76500 3961.0
5.77500 2454.0
5.78500 1687.0
5.79500 1155.0
5.80500 907.0
5.81500 759.0
5.82500 616.0
5.83500 564.0
5.84500 434.0
5.85500 376.0
5.86500 384.0
5.87500 304.0
5.88500 281.0
5.89500 246.0
5.90500 243.0
5.91500 206.0
5.92500 219.0
5.93500 190.0
5.94500 169.0
5.95500 162.0
5.96500 167.0
5.97500 157.0
5.98500 135.0
5.99500 119.0
6.00500 140.0
6.01500 115.0
6.02500 124.0
6.03500 120.0
6.04500 132.0
6.05500 148.0
6.06500 118.0
6.07500 114.0
6.08500 131.0
6.09500 87.0
6.10500 118.0
6.11500 100.0
6.12500 93.0
6.13500 99.0
6.14500 106.0
6.15500 94.0
6.16500 98.0
6.17500 109.0
6.18500 94.0
6.19500 94.0
6.20500 75.0
6.21500 82.0
6.22500 83.0
6.23500 96.0
6.24500 84.0
6.25500 90.0
6.26500 99.0
6.27500 89.0
6.28500 100.0
6.29500 69.0
6.30500 114.0
6.31500 73.0
6.32500 79.0
6.33500 97.0
6.34500 77.0
6.35500 92.0
6.36500 90.0
6.37500 113.0
6.38500 83.0
6.39500 90.0
6.40500 81.0
6.41500 73.0
6.42500 76.0
6.43500 73.0
6.44500 81.0
6.45500 68.0
6.46500 96.0
6.47500 107.0
6.48500 104.0
6.49500 71.0
6.50500 85.0
6.51500 87.0
6.52500 116.0
6.53500 109.0
6.54500 117.0
6.55500 86.0
6.56500 83.0
6.57500 67.0
6.58500 93.0
6.59500 85.0
6.60500 79.0
6.61500 68.0
6.62500 62.0
6.63500 65.0
6.64500 67.0
6.65500 66.0
6.66500 63.0
6.67500 84.0
6.68500 87.0
6.69500 93.0
6.70500 85.0
6.71500 89.0
6.72500 72.0
6.73500 71.0
6.74500 73.0
6.75500 57.0
6.76500 65.0
6.77500 77.0
6.78500 70.0
6.79500 45.0
6.80500 52.0
6.81500 47.0
6.82500 44.0
6.83500 63.0
6.84500 77.0
6.85500 75.0
6.86500 57.0
6.87500 68.0
6.88500 68.0
6.89500 81.0
6.90500 76.0
6.91500 84.0
6.92500 80.0
6.93500 74.0
6.94500 81.0
6.95500 92.0
6.96500 68.0
6.97500 79.0
6.98500 79.0
6.99500 79.0
7.00500 48.0
7.01500 47.0
7.02500 74.0
7.03500 75.0
7.04500 87.0
7.05500 80.0
7.06500 83.0
7.07500 71.0
7.08500 73.0
7.09500 61.0
7.10500 61.0
7.11500 59.0
7.12500 65.0
7.13500 88.0
7.14500 92.0
7.15500 75.0
7.16500 94.0
7.17500 108.0
7.18500 73.0
7.19500 66.0
7.20500 76.0
7.21500 70.0
7.22500 54.0
7.23500 63.0
7.24500 71.0
7.25500 62.0
7.26500 80.0
7.27500 76.0
7.28500 65.0
7.29500 60.0
7.30500 69.0
7.31500 60.0
7.32500 63.0
7.33500 54.0
7.34500 76.0
7.35500 68.0
7.36500 79.0
7.37500 82.0
7.38500 103.0
7.39500 79.0
7.40500 97.0
7.41500 92.0
7.42500 101.0
7.43500 109.0
7.44500 88.0
7.45500 64.0
7.46500 58.0
7.47500 72.0
7.48500 54.0
7.49500 80.0
7.50500 74.0
7.51500 107.0
7.52500 109.0
7.53500 124.0
7.54500 166.0
7.55500 263.0
7.56500 552.0
7.57500 1284.0
7.58500 2452.0
7.59500 3794.0
7.60500 4581.0
7.61500 4417.0
7.62500 3670.0
7.63500 2550.0
7.64500 1723.0
7.65500 1200.0
7.66500 843.0
7.67500 678.0
7.68500 549.0
7.69500 442.0
7.70500 357.0
7.71500 348.0
7.72500 305.0
7.73500 263.0
7.74500 225.0
7.75500 222.0
7.76500 162.0
7.77500 205.0
7.78500 173.0
7.79500 145.0
7.80500 147.0
7.81500 137.0
7.82500 125.0
7.83500 143.0
7.84500 120.0
7.85500 98.0
7.86500 110.0
7.87500 104.0
7.88500 87.0
7.89500 113.0
7.90500 91.0
7.91500 104.0
7.92500 91.0
7.93500 84.0
7.94500 105.0
7.95500 88.0
7.96500 66.0
7.97500 77.0
7.98500 67.0
7.99500 77.0
8.00500 84.0
8.01500 84.0
8.02500 80.0
8.03500 68.0
8.04500 86.0
8.05500 68.0
8.06500 52.0
8.07500 69.0
8.08500 60.0
8.09500 52.0
8.10500 50.0
8.11500 65.0
8.12500 52.0
8.13500 64.0
8.14500 73.0
8.15500 60.0
8.16500 64.0
8.17500 58.0
8.18500 46.0
8.19500 61.0
8.20500 108.0
8.21500 89.0
8.22500 75.0
8.23500 88.0
8.24500 78.0
8.25500 92.0
8.26500 68.0
8.27500 69.0
8.28500 61.0
8.29500 50.0
8.30500 65.0
8.31500 47.0
8.32500 52.0
8.33500 50.0
8.34500 71.0
8.35500 97.0
8.36500 91.0
8.37500 72.0
8.38500 58.0
8.39500 70.0
8.40500 63.0
8.41500 84.0
8.42500 72.0
8.43500 71.0
8.44500 80.0
8.45500 67.0
8.46500 62.0
8.47500 54.0
8.48500 66.0
8.49500 73.0
8.50500 70.0
8.51500 73.0
8.52500 71.0
8.53500 89.0
8.54500 85.0
8.55500 81.0
8.56500 67.0
8.57500 75.0
8.58500 85.0
8.59500 78.0
8.60500 64.0
8.61500 66.0
8.62500 66.0
8.63500 60.0
8.64500 68.0
8.65500 102.0
8.66500 108.0
8.67500 125.0
8.68500 105.0
8.69500 142.0
8.70500 107.0
8.71500 107.0
8.72500 83.0
8.73500 87.0
8.74500 136.0
8.75500 130.0
8.76500 137.0
8.77500 91.0
8.78500 106.0
8.79500 89.0
8.80500 107.0
8.81500 99.0
8.82500 115.0
8.83500 100.0
8.84500 75.0
8.85500 62.0
8.86500 129.0
8.87500 110.0
8.88500 153.0
8.89500 96.0
8.90500 87.0
8.91500 105.0
8.92500 111.0
8.93500 95.0
8.94500 99.0
8.95500 112.0
8.96500 97.0
8.97500 108.0
8.98500 72.0
8.99500 96.0
9.00500 98.0
9.01500 76.0
9.02500 57.0
9.03500 89.0
9.04500 85.0
9.05500 90.0
9.06500 84.0
9.07500 103.0
9.08500 118.0
9.09500 102.0
9.10500 102.0
9.11500 77.0
9.12500 96.0
9.13500 96.0
9.14500 95.0
9.15500 112.0
9.16500 117.0
9.17500 138.0
9.18500 105.0
9.19500 151.0
9.20500 93.0
9.21500 165.0
9.22500 159.0
9.23500 118.0
9.24500 82.0
9.25500 51.0
9.26500 43.0
9.27500 59.0
9.28500 67.0
9.29500 87.0
9.30500 73.0
9.31500 95.0
9.32500 64.0
9.33500 76.0
9.34500 70.0
9.35500 57.0
9.36500 63.0
9.37500 44.0
9.38500 54.0
9.39500 72.0
9.40500 54.0
9.41500 83.0
9.42500 74.0
9.43500 74.0
9.44500 93.0
9.45500 88.0
9.46500 110.0
9.47500 156.0
9.48500 146.0
9.49500 153.0
9.50500 151.0
9.51500 144.0
9.52500 154.0
9.53500 106.0
9.54500 105.0
9.55500 112.0
9.56500 92.0
9.57500 84.0
9.58500 81.0
9.59500 77.0
9.60500 76.0
9.61500 72.0
9.62500 88.0
9.63500 92.0
9.64500 93.0
9.65500 91.0
9.66500 83.0
9.67500 62.0
9.68500 74.0
9.69500 67.0
9.70500 71.0
9.71500 62.0
9.72500 73.0
9.73500 91.0
9.74500 59.0
9.75500 89.0
9.76500 62.0
9.77500 55.0
9.78500 61.0
9.79500 45.0
9.80500 57.0
9.81500 54.0
9.82500 50.0
9.83500 57.0
9.84500 48.0
9.85500 48.0
9.86500 54.0
9.87500 52.0
9.88500 34.0
9.89500 51.0
9.90500 33.0
9.91500 52.0
9.92500 44.0
9.93500 54.0
9.94500 46.0
9.95500 52.0
9.96500 48.0
9.97500 44.0
9.98500 35.0
9.99500 48.0
10.00500 57.0
10.01500 51.0
10.02500 43.0
10.03500 37.0
10.04500 44.0
10.05500 37.0
10.06500 52.0
10.07500 45.0
10.08500 56.0
10.09500 56.0
10.10500 54.0
10.11500 45.0
10.12500 37.0
10.13500 56.0
10.14500 52.0
10.15500 56.0
10.16500 63.0
10.17500 77.0
10.18500 66.0
10.19500 86.0
10.20500 72.0
10.21500 73.0
10.22500 62.0
10.23500 51.0
10.24500 68.0
10.25500 68.0
10.26500 70.0
10.27500 106.0
10.28500 140.0
10.29500 106.0
10.30500 87.0
10.31500 91.0
10.32500 90.0
10.33500 60.0
10.34500 89.0
10.35500 59.0
10.36500 66.0
10.37500 79.0
10.38500 78.0
10.39500 95.0
10.40500 79.0
10.41500 60.0
10.42500 78.0
10.43500 82.0
10.44500 94.0
10.45500 82.0
10.46500 70.0
10.47500 61.0
10.48500 81.0
10.49500 89.0
10.50500 108.0
10.51500 107.0
10.52500 88.0
10.53500 72.0
10.54500 73.0
10.55500 58.0
10.56500 32.0
10.57500 55.0
10.58500 52.0
10.59500 58.0
10.60500 97.0
10.61500 82.0
10.62500 58.0
10.63500 61.0
10.64500 74.0
10.65500 48.0
10.66500 63.0
10.67500 67.0
10.68500 65.0
10.69500 67.0
10.70500 75.0
10.71500 81.0
10.72500 55.0
10.73500 92.0
10.74500 105.0
10.75500 67.0
10.76500 71.0
10.77500 78.0
10.78500 78.0
10.79500 88.0
10.80500 98.0
10.81500 50.0
10.82500 49.0
10.83500 64.0
10.84500 70.0
10.85500 65.0
10.86500 71.0
10.87500 61.0
10.88500 67.0
10.89500 68.0
10.90500 60.0
10.91500 49.0
10.92500 43.0
10.93500 54.0
10.94500 62.0
10.95500 92.0
10.96500 71.0
10.97500 67.0
10.98500 75.0
10.99500 70.0
11.00500 54.0
11.01500 52.0
11.02500 40.0
11.03500 65.0
11.04500 71.0
11.05500 49.0
11.06500 57.0
11.07500 73.0
11.08500 73.0
11.09500 78.0
11.10500 80.0
11.11500 78.0
11.12500 100.0
11.13500 104.0
11.14500 66.0
11.15500 57.0
11.16500 60.0
11.17500 60.0
11.18500 61.0
11.19500 43.0
11.20500 49.0
11.21500 67.0
11.22500 63.0
11.23500 63.0
11.24500 69.0
11.25500 65.0
11.26500 76.0
11.27500 59.0
11.28500 93.0
11.29500 99.0
11.30500 98.0
11.31500 84.0
11.32500 76.0
11.33500 94.0
11.34500 62.0
11.35500 71.0
11.36500 92.0
11.37500 132.0
11.38500 174.0
11.39500 166.0
11.40500 164.0
11.41500 160.0
11.42500 143.0
11.43500 101.0
11.44500 96.0
11.45500 129.0
11.46500 74.0
11.47500 115.0
11.48500 85.0
11.49500 74.0
11.50500 77.0
11.51500 99.0
11.52500 114.0
11.53500 108.0
11.54500 79.0
11.55500 76.0
11.56500 71.0
11.57500 69.0
11.58500 83.0
11.59500 94.0
11.60500 86.0
11.61500 71.0
11.62500 68.0
11.63500 74.0
11.64500 57.0
11.65500 52.0
11.66500 64.0
11.67500 66.0
11.68500 50.0
11.69500 52.0
11.70500 56.0
11.71500 55.0
11.72500 67.0
11.73500 54.0
11.74500 60.0
11.75500 65.0
11.76500 59.0
11.77500 64.0
11.78500 61.0
11.79500 65.0
11.80500 64.0
11.81500 55.0
11.82500 48.0
11.83500 68.0
11.84500 60.0
11.85500 59.0
11.86500 34.0
11.87500 61.0
11.88500 49.0
11.89500 62.0
11.90500 53.0
11.91500 65.0
11.92500 58.0
11.93500 31.0
11.94500 43.0
11.95500 56.0
11.96500 57.0
11.97500 53.0
11.98500 45.0
11.99500 49.0
