0.00500 35499592.0
0.01500 38846748.0
0.02500 29904878.0
0.03500 17790516.0
0.04500 9319305.0
0.05500 4947269.0
0.06500 3469890.0
0.07500 3542261.0
0.08500 4064879.0
0.09500 4656189.0
0.10500 5299969.0
0.11500 5869107.0
0.12500 6506093.0
0.13500 7108093.0
0.14500 7680724.0
0.15500 8376293.0
0.16500 8938557.0
0.17500 9520542.0
0.18500 10077949.0
0.19500 10649595.0
0.20500 11348731.0
0.21500 11789799.0
0.22500 12313723.0
0.23500 12846737.0
0.24500 13215712.0
0.25500 13922689.0
0.26500 14321454.0
0.27500 14707763.0
0.28500 15315514.0
0.29500 15669091.0
0.30500 16257025.0
0.31500 16622301.0
0.32500 16908852.0
0.33500 17411752.0
0.34500 17641072.0
0.35500 18247380.0
0.36500 18561496.0
0.37500 18688254.0
0.38500 19139766.0
0.39500 19332126.0
0.40500 19584836.0
0.41500 19980340.0
0.42500 19983240.0
0.43500 20438238.0
0.44500 20635120.0
0.45500 20971400.0
0.46500 21322068.0
0.47500 21214050.0
0.48500 21482284.0
0.49500 21560852.0
0.50500 21569900.0
0.51500 21897274.0
0.52500 21784436.0
0.53500 21806572.0
0.54500 21886300.0
0.55500 21593128.0
0.56500 21812622.0
0.57500 21462604.0
0.58500 21381580.0
0.59500 21293880.0
0.60500 20795176.0
0.61500 20489344.0
0.62500 20019750.0
0.63500 19388464.0
0.64500 18903202.0
0.65500 17981316.0
0.66500 17193798.0
0.67500 16020884.0
0.68500 14772633.0
0.69500 13614046.0
0.70500 12113738.0
0.71500 10862407.0
0.72500 9614920.0
0.73500 8444716.0
0.74500 7494426.0
0.75500 6527182.0
0.76500 5772901.0
0.77500 5142729.0
0.78500 4522916.0
0.79500 4047024.0
0.80500 3609090.0
0.81500 3253517.0
0.82500 2974281.0
0.83500 2692354.0
0.84500 2474852.0
0.85500 2251853.0
0.86500 2058008.0
0.87500 1904564.0
0.88500 1740169.0
0.89500 1600282.0
0.90500 1481257.0
0.91500 1359834.0
0.92500 1274950.0
0.93500 1180673.0
0.94500 1103443.0
0.95500 1026635.0
0.96500 951945.0
0.97500 901165.0
0.98500 840869.0
0.99500 786568.0
1.00500 746291.0
1.01500 697181.0
1.02500 657820.0
1.03500 622678.0
1.04500 582754.0
1.05500 557732.0
1.06500 523283.0
1.07500 499345.0
1.08500 472217.0
1.09500 445998.0
1.10500 430193.0
1.11500 404394.0
1.12500 387174.0
1.13500 375086.0
1.14500 360543.0
1.15500 346713.0
1.16500 331846.0
1.17500 319019.0
1.18500 310175.0
1.19500 297910.0
1.20500 287763.0
1.21500 277394.0
1.22500 270936.0
1.23500 264175.0
1.24500 256645.0
1.25500 252871.0
1.26500 248764.0
1.27500 243813.0
1.28500 240493.0
1.29500 237133.0
1.30500 235310.0
1.31500 232944.0
1.32500 227574.0
1.33500 227151.0
1.34500 224077.0
1.35500 224022.0
1.36500 224393.0
1.37500 225999.0
1.38500 229612.0
1.39500 234296.0
1.40500 239095.0
1.41500 249716.0
1.42500 257297.0
1.43500 268049.0
1.44500 281021.0
1.45500 295157.0
1.46500 315696.0
1.47500 344335.0
1.48500 377718.0
1.49500 414247.0
1.50500 449628.0
1.51500 492679.0
1.52500 535208.0
1.53500 591855.0
1.54500 661423.0
1.55500 761427.0
1.56500 902384.0
1.57500 1097121.0
1.58500 1386078.0
1.59500 1839595.0
1.60500 2564939.0
1.61500 3727667.0
1.62500 5319030.0
1.63500 6896048.0
1.64500 7802537.0
1.65500 7643773.0
1.66500 6616570.0
1.67500 5206313.0
1.68500 3848439.0
1.69500 2743923.0
1.70500 1952435.0
1.71500 1403389.0
1.72500 1031003.0
1.73500 777263.0
1.74500 597562.0
1.75500 472965.0
1.76500 384209.0
1.77500 312194.0
1.78500 256603.0
1.79500 212220.0
1.80500 178536.0
1.81500 153604.0
1.82500 135834.0
1.83500 122067.0
1.84500 112207.0
1.85500 102361.0
1.86500 92443.0
1.87500 83902.0
1.88500 76069.0
1.89500 69463.0
1.90500 64594.0
1.91500 60796.0
1.92500 56278.0
1.93500 52498.0
1.94500 48217.0
1.95500 44856.0
1.96500 41653.0
1.97500 40106.0
1.98500 37263.0
1.99500 35093.0
2.00500 33084.0
2.01500 31369.0
2.02500 29762.0
2.03500 28096.0
2.04500 26464.0
2.05500 24947.0
2.06500 23861.0
2.07500 23184.0
2.08500 22137.0
2.09500 21341.0
2.10500 20191.0
2.11500 19457.0
2.12500 18813.0
2.13500 17788.0
2.14500 16825.0
2.15500 16046.0
2.16500 15456.0
2.17500 14702.0
2.18500 13990.0
2.19500 13645.0
2.20500 12953.0
2.21500 12405.0
2.22500 11917.0
2.23500 11711.0
2.24500 10985.0
2.25500 10624.0
2.26500 10179.0
2.27500 9989.0
2.28500 9680.0
2.29500 9179.0
2.30500 9014.0
2.31500 8579.0
2.32500 8227.0
2.33500 7889.0
2.34500 7517.0
2.35500 7096.0
2.36500 6576.0
2.37500 6322.0
2.38500 5998.0
2.39500 5693.0
2.40500 5484.0
2.41500 5099.0
2.42500 5223.0
2.43500 4905.0
2.44500 4562.0
2.45500 4632.0
2.46500 4382.0
2.47500 4221.0
2.48500 4067.0
2.49500 4059.0
2.50500 3805.0
2.51500 3825.0
2.52500 3521.0
2.53500 3472.0
2.54500 3189.0
2.55500 3154.0
2.56500 3032.0
2.57500 2968.0
2.58500 2892.0
2.59500 2690.0
2.60500 2652.0
2.61500 2578.0
2.62500 2509.0
2.63500 2241.0
2.64500 2271.0
2.65500 2195.0
2.66500 2102.0
2.67500 1862.0
2.68500 1809.0
2.69500 1771.0
2.70500 1639.0
2.71500 1492.0
2.72500 1430.0
2.73500 1407.0
2.74500 1239.0
2.75500 1285.0
2.76500 1222.0
2.77500 1179.0
2.78500 1130.0
2.79500 913.0
2.80500 894.0
2.81500 855.0
2.82500 825.0
2.83500 717.0
2.84500 719.0
2.85500 652.0
2.86500 568.0
2.87500 563.0
2.88500 506.0
2.89500 458.0
2.90500 471.0
2.91500 462.0
2.92500 484.0
2.93500 469.0
2.94500 467.0
2.95500 400.0
2.96500 385.0
2.97500 427.0
2.98500 584.0
2.99500 754.0
3.00500 948.0
3.01500 1696.0
3.02500 3771.0
3.03500 9549.0
3.04500 21467.0
3.05500 35729.0
3.06500 44025.0
3.07500 41788.0
3.08500 32254.0
3.09500 22189.0
3.10500 14974.0
3.11500 10053.0
3.12500 7373.0
3.13500 5716.0
3.14500 4789.0
3.15500 3853.0
3.16500 3234.0
3.17500 2810.0
3.18500 2530.0
3.19500 2253.0
3.20500 2127.0
3.21500 1822.0
3.22500 1683.0
3.23500 1545.0
3.24500 1527.0
3.25500 1396.0
3.26500 1298.0
3.27500 1124.0
3.28500 1142.0
3.29500 998.0
3.30500 913.0
3.31500 866.0
3.32500 844.0
3.33500 789.0
3.34500 772.0
3.35500 712.0
3.36500 664.0
3.37500 649.0
3.38500 571.0
3.39500 531.0
3.40500 533.0
3.41500 458.0
3.42500 421.0
3.43500 403.0
3.44500 356.0
3.45500 331.0
3.46500 323.0
3.47500 317.0
3.48500 337.0
3.49500 286.0
3.50500 299.0
3.51500 239.0
3.52500 218.0
3.53500 223.0
3.54500 240.0
3.55500 221.0
3.56500 202.0
3.57500 188.0
3.58500 183.0
3.59500 186.0
3.60500 163.0
3.61500 156.0
3.62500 154.0
3.63500 152.0
3.64500 148.0
3.65500 114.0
3.66500 125.0
3.67500 150.0
3.68500 129.0
3.69500 109.0
3.70500 138.0
3.71500 111.0
3.72500 126.0
3.73500 158.0
3.74500 130.0
3.75500 133.0
3.76500 152.0
3.77500 175.0
3.78500 191.0
3.79500 175.0
3.80500 165.0
3.81500 200.0
3.82500 201.0
3.83500 192.0
3.84500 193.0
3.85500 180.0
3.86500 197.0
3.87500 197.0
3.88500 185.0
3.89500 190.0
3.90500 169.0
3.91500 207.0
3.92500 224.0
3.93500 195.0
3.94500 227.0
3.95500 252.0
3.96500 250.0
3.97500 258.0
3.98500 255.0
3.99500 295.0
4.00500 257.0
4.01500 240.0
4.02500 271.0
4.03500 255.0
4.04500 278.0
4.05500 289.0
4.06500 275.0
4.07500 327.0
4.08500 359.0
4.09500 386.0
4.10500 365.0
4.11500 325.0
4.12500 348.0
4.13500 399.0
4.14500 370.0
4.15500 419.0
4.16500 410.0
4.17500 425.0
4.18500 386.0
4.19500 459.0
4.20500 423.0
4.21500 474.0
4.22500 453.0
4.23500 472.0
4.24500 465.0
4.25500 546.0
4.26500 653.0
4.27500 678.0
4.28500 695.0
4.29500 664.0
4.30500 733.0
4.31500 697.0
4.32500 857.0
4.33500 991.0
4.34500 1083.0
4.35500 1365.0
4.36500 1451.0
4.37500 1512.0
4.38500 1579.0
4.39500 1667.0
4.40500 1787.0
4.41500 2003.0
4.42500 2454.0
4.43500 3511.0
4.44500 4638.0
4.45500 6108.0
4.46500 8336.0
4.47500 11409.0
4.48500 16808.0
4.49500 27636.0
4.50500 49039.0
4.51500 71977.0
4.52500 81812.0
4.53500 74785.0
4.54500 56892.0
4.55500 38230.0
4.56500 24692.0
4.57500 15613.0
4.58500 10211.0
4.59500 6975.0
4.60500 5052.0
4.61500 3787.0
4.62500 2946.0
4.63500 2289.0
4.64500 1951.0
4.65500 1674.0
4.66500 1414.0
4.67500 1221.0
4.68500 1059.0
4.69500 910.0
4.70500 768.0
4.71500 629.0
4.72500 610.0
4.73500 589.0
4.74500 546.0
4.75500 530.0
4.76500 524.0
4.77500 459.0
4.78500 455.0
4.79500 449.0
4.80500 385.0
4.81500 349.0
4.82500 332.0
4.83500 393.0
4.84500 356.0
4.85500 333.0
4.86500 293.0
4.87500 278.0
4.88500 325.0
4.89500 261.0
4.90500 283.0
4.91500 285.0
4.92500 287.0
4.93500 284.0
4.94500 326.0
4.95500 321.0
4.96500 348.0
4.97500 333.0
4.98500 296.0
4.99500 301.0
5.00500 299.0
5.01500 332.0
5.02500 298.0
5.03500 323.0
5.04500 300.0
5.05500 276.0
5.06500 310.0
5.07500 297.0
5.08500 275.0
5.09500 306.0
5.10500 302.0
5.11500 294.0
5.12500 312.0
5.13500 302.0
5.14500 324.0
5.15500 297.0
5.16500 290.0
5.17500 271.0
5.18500 269.0
5.19500 261.0
5.20500 277.0
5.21500 260.0
5.22500 232.0
5.23500 308.0
5.24500 281.0
5.25500 299.0
5.26500 284.0
5.27500 303.0
5.28500 273.0
5.29500 257.0
5.30500 291.0
5.31500 284.0
5.32500 266.0
5.33500 259.0
5.34500 266.0
5.35500 251.0
5.36500 208.0
5.37500 242.0
5.38500 238.0
5.39500 254.0
5.40500 283.0
5.41500 266.0
5.42500 271.0
5.43500 271.0
5.44500 269.0
5.45500 256.0
5.46500 263.0
5.47500 232.0
5.48500 218.0
5.49500 234.0
5.50500 207.0
5.51500 207.0
5.52500 206.0
5.53500 246.0
5.54500 251.0
5.55500 274.0
5.56500 248.0
5.57500 257.0
5.58500 264.0
5.59500 220.0
5.60500 212.0
5.61500 309.0
5.62500 265.0
5.63500 256.0
5.64500 263.0
5.65500 282.0
5.66500 269.0
5.67500 238.0
5.68500 247.0
5.69500 237.0
5.70500 209.0
5.71500 237.0
5.72500 220.0
5.73500 229.0
5.74500 280.0
5.75500 282.0
5.76500 247.0
5.77500 265.0
5.78500 276.0
5.79500 270.0
5.80500 313.0
5.81500 319.0
5.82500 307.0
5.83500 289.0
5.84500 267.0
5.85500 271.0
5.86500 300.0
5.87500 341.0
5.88500 412.0
5.89500 514.0
5.90500 568.0
5.91500 686.0
5.92500 722.0
5.93500 892.0
5.94500 1066.0
5.95500 1275.0
5.96500 1593.0
5.97500 2238.0
5.98500 3073.0
5.99500 3580.0
6.00500 3632.0
6.01500 3076.0
6.02500 2259.0
6.03500 1638.0
6.04500 1152.0
6.05500 817.0
6.06500 648.0
6.07500 577.0
6.08500 411.0
6.09500 386.0
6.10500 327.0
6.11500 265.0
6.12500 264.0
6.13500 245.0
6.14500 228.0
6.15500 231.0
6.16500 250.0
6.17500 247.0
6.18500 202.0
6.19500 188.0
6.20500 212.0
6.21500 193.0
6.22500 240.0
6.23500 181.0
6.24500 183.0
6.25500 208.0
6.26500 193.0
6.27500 202.0
6.28500 196.0
6.29500 207.0
6.30500 188.0
6.31500 190.0
6.32500 202.0
6.33500 179.0
6.34500 175.0
6.35500 183.0
6.36500 221.0
6.37500 228.0
6.38500 232.0
6.39500 180.0
6.40500 170.0
6.41500 164.0
6.42500 163.0
6.43500 160.0
6.44500 191.0
6.45500 189.0
6.46500 157.0
6.47500 140.0
6.48500 154.0
6.49500 145.0
6.50500 188.0
6.51500 194.0
6.52500 195.0
6.53500 161.0
6.54500 137.0
6.55500 181.0
6.56500 183.0
6.57500 154.0
6.58500 152.0
6.59500 153.0
6.60500 127.0
6.61500 156.0
6.62500 145.0
6.63500 160.0
6.64500 159.0
6.65500 141.0
6.66500 131.0
6.67500 145.0
6.68500 165.0
6.69500 133.0
6.70500 124.0
6.71500 131.0
6.72500 140.0
6.73500 156.0
6.74500 165.0
6.75500 133.0
6.76500 167.0
6.77500 174.0
6.78500 133.0
6.79500 156.0
6.80500 162.0
6.81500 138.0
6.82500 138.0
6.83500 152.0
6.84500 130.0
6.85500 111.0
6.86500 134.0
6.87500 152.0
6.88500 149.0
6.89500 125.0
6.90500 139.0
6.91500 138.0
6.92500 115.0
6.93500 147.0
6.94500 117.0
6.95500 169.0
6.96500 160.0
6.97500 144.0
6.98500 143.0
6.99500 141.0
7.00500 114.0
7.01500 133.0
7.02500 134.0
7.03500 129.0
7.04500 145.0
7.05500 139.0
7.06500 159.0
7.07500 143.0
7.08500 149.0
7.09500 143.0
7.10500 142.0
7.11500 135.0
7.12500 153.0
7.13500 102.0
7.14500 98.0
7.15500 128.0
7.16500 148.0
7.17500 138.0
7.18500 141.0
7.19500 145.0
7.20500 131.0
7.21500 137.0
7.22500 129.0
7.23500 117.0
7.24500 115.0
7.25500 136.0
7.26500 129.0
7.27500 115.0
7.28500 130.0
7.29500 147.0
7.30500 150.0
7.31500 142.0
7.32500 186.0
7.33500 240.0
7.34500 269.0
7.35500 341.0
7.36500 436.0
7.37500 463.0
7.38500 469.0
7.39500 477.0
7.40500 576.0
7.41500 684.0
7.42500 811.0
7.43500 1036.0
7.44500 1264.0
7.45500 1581.0
7.46500 2105.0
7.47500 2436.0
7.48500 2636.0
7.49500 2590.0
7.50500 2165.0
7.51500 1652.0
7.52500 1254.0
7.53500 978.0
7.54500 637.0
7.55500 524.0
7.56500 394.0
7.57500 336.0
7.58500 285.0
7.59500 240.0
7.60500 214.0
7.61500 180.0
7.62500 168.0
7.63500 144.0
7.64500 142.0
7.65500 168.0
7.66500 157.0
7.67500 127.0
7.68500 128.0
7.69500 94.0
7.70500 137.0
7.71500 146.0
7.72500 123.0
7.73500 153.0
7.74500 128.0
7.75500 124.0
7.76500 119.0
7.77500 137.0
7.78500 112.0
7.79500 113.0
7.80500 114.0
7.81500 107.0
7.82500 117.0
7.83500 116.0
7.84500 121.0
7.85500 128.0
7.86500 128.0
7.87500 118.0
7.88500 131.0
7.89500 104.0
7.90500 104.0
7.91500 96.0
7.92500 91.0
7.93500 102.0
7.94500 120.0
7.95500 106.0
7.96500 88.0
7.97500 88.0
7.98500 98.0
7.99500 119.0
8.00500 108.0
8.01500 91.0
8.02500 100.0
8.03500 101.0
8.04500 95.0
8.05500 107.0
8.06500 89.0
8.07500 76.0
8.08500 101.0
8.09500 88.0
8.10500 95.0
8.11500 77.0
8.12500 78.0
8.13500 94.0
8.14500 111.0
8.15500 114.0
8.16500 94.0
8.17500 95.0
8.18500 99.0
8.19500 90.0
8.20500 91.0
8.21500 82.0
8.22500 88.0
8.23500 107.0
8.24500 128.0
8.25500 97.0
8.26500 81.0
8.27500 83.0
8.28500 76.0
8.29500 81.0
8.30500 76.0
8.31500 94.0
8.32500 82.0
8.33500 94.0
8.34500 124.0
8.35500 123.0
8.36500 100.0
8.37500 124.0
8.38500 112.0
8.39500 96.0
8.40500 97.0
8.41500 123.0
8.42500 108.0
8.43500 103.0
8.44500 114.0
8.45500 108.0
8.46500 111.0
8.47500 107.0
8.48500 116.0
8.49500 114.0
8.50500 96.0
8.51500 92.0
8.52500 109.0
8.53500 114.0
8.54500 106.0
8.55500 121.0
8.56500 110.0
8.57500 97.0
8.58500 112.0
8.59500 121.0
8.60500 107.0
8.61500 112.0
8.62500 85.0
8.63500 109.0
8.64500 111.0
8.65500 128.0
8.66500 93.0
8.67500 113.0
8.68500 114.0
8.69500 55.0
8.70500 95.0
8.71500 83.0
8.72500 95.0
8.73500 94.0
8.74500 84.0
8.75500 85.0
8.76500 91.0
8.77500 94.0
8.78500 93.0
8.79500 98.0
8.80500 105.0
8.81500 126.0
8.82500 133.0
8.83500 138.0
8.84500 149.0
8.85500 139.0
8.86500 155.0
8.87500 129.0
8.88500 139.0
8.89500 169.0
8.90500 158.0
8.91500 165.0
8.92500 189.0
8.93500 203.0
8.94500 200.0
8.95500 190.0
8.96500 207.0
8.97500 221.0
8.98500 187.0
8.99500 177.0
9.00500 133.0
9.01500 132.0
9.02500 109.0
9.03500 110.0
9.04500 100.0
9.05500 115.0
9.06500 83.0
9.07500 112.0
9.08500 86.0
9.09500 90.0
9.10500 93.0
9.11500 106.0
9.12500 96.0
9.13500 88.0
9.14500 103.0
9.15500 93.0
9.16500 82.0
9.17500 89.0
9.18500 96.0
9.19500 81.0
9.20500 70.0
9.21500 88.0
9.22500 73.0
9.23500 65.0
9.24500 78.0
9.25500 60.0
9.26500 74.0
9.27500 72.0
9.28500 93.0
9.29500 87.0
9.30500 94.0
9.31500 92.0
9.32500 88.0
9.33500 84.0
9.34500 75.0
9.35500 65.0
9.36500 61.0
9.37500 66.0
9.38500 64.0
9.39500 78.0
9.40500 71.0
9.41500 51.0
9.42500 76.0
9.43500 68.0
9.44500 61.0
9.45500 65.0
9.46500 66.0
9.47500 46.0
9.48500 65.0
9.49500 77.0
9.50500 75.0
9.51500 75.0
9.52500 87.0
9.53500 72.0
9.54500 88.0
9.55500 81.0
9.56500 80.0
9.57500 73.0
9.58500 91.0
9.59500 76.0
9.60500 88.0
9.61500 62.0
9.62500 93.0
9.63500 68.0
9.64500 66.0
9.65500 75.0
9.66500 82.0
9.67500 75.0
9.68500 68.0
9.69500 80.0
9.70500 66.0
9.71500 86.0
9.72500 69.0
9.73500 79.0
9.74500 80.0
9.75500 96.0
9.76500 93.0
9.77500 94.0
9.78500 111.0
9.79500 108.0
9.80500 84.0
9.81500 81.0
9.82500 85.0
9.83500 88.0
9.84500 79.0
9.85500 74.0
9.86500 84.0
9.87500 100.0
9.88500 88.0
9.89500 100.0
9.90500 88.0
9.91500 66.0
9.92500 73.0
9.93500 50.0
9.94500 55.0
9.95500 75.0
9.96500 76.0
9.97500 67.0
9.98500 84.0
9.99500 97.0
