0.00500 34839524.0
0.01500 37079212.0
0.02500 27420808.0
0.03500 16270496.0
0.04500 8703447.0
0.05500 5120759.0
0.06500 4617397.0
0.07500 5064679.0
0.08500 5694425.0
0.09500 6332852.0
0.10500 6975423.0
0.11500 7581227.0
0.12500 8199743.0
0.13500 8716419.0
0.14500 9273418.0
0.15500 9784633.0
0.16500 10365605.0
0.17500 10918994.0
0.18500 11454582.0
0.19500 12002759.0
0.20500 12609963.0
0.21500 13145019.0
0.22500 13560629.0
0.23500 14009627.0
0.24500 14486176.0
0.25500 15034900.0
0.26500 15491750.0
0.27500 15811022.0
0.28500 16255713.0
0.29500 16736899.0
0.30500 17253868.0
0.31500 17658124.0
0.32500 18015236.0
0.33500 18374164.0
0.34500 18747528.0
0.35500 19082372.0
0.36500 19466388.0
0.37500 19846090.0
0.38500 20148430.0
0.39500 20403376.0
0.40500 20782840.0
0.41500 21100428.0
0.42500 21241052.0
0.43500 21584508.0
0.44500 21777376.0
0.45500 22109952.0
0.46500 22323492.0
0.47500 22573428.0
0.48500 22867284.0
0.49500 23090756.0
0.50500 23217828.0
0.51500 23338248.0
0.52500 23485592.0
0.53500 23645440.0
0.54500 23873928.0
0.55500 24052790.0
0.56500 24127624.0
0.57500 24300304.0
0.58500 24360736.0
0.59500 24204644.0
0.60500 24054384.0
0.61500 23867496.0
0.62500 23960478.0
0.63500 23812474.0
0.64500 23634540.0
0.65500 23181532.0
0.66500 22719858.0
0.67500 21744668.0
0.68500 20350360.0
0.69500 18243016.0
0.70500 15785324.0
0.71500 13267154.0
0.72500 11097573.0
0.73500 9455138.0
0.74500 8074070.0
0.75500 7051721.0
0.76500 6256763.0
0.77500 5604653.0
0.78500 5062271.0
0.79500 4559364.0
0.80500 4162830.0
0.81500 3821445.0
0.82500 3501058.0
0.83500 3214700.0
0.84500 2960643.0
0.85500 2750332.0
0.86500 2554870.0
0.87500 2405577.0
0.88500 2231036.0
0.89500 2097817.0
0.90500 1970745.0
0.91500 1851047.0
0.92500 1738713.0
0.93500 1647737.0
0.94500 1541006.0
0.95500 1455032.0
0.96500 1373267.0
0.97500 1296894.0
0.98500 1228742.0
0.99500 1173338.0
1.00500 1118165.0
1.01500 1067271.0
1.02500 1020066.0
1.03500 968576.0
1.04500 928960.0
1.05500 890010.0
1.06500 848808.0
1.07500 824306.0
1.08500 780246.0
1.09500 740036.0
1.10500 710912.0
1.11500 689995.0
1.12500 659892.0
1.13500 633664.0
1.14500 613379.0
1.15500 590710.0
1.16500 566223.0
1.17500 551318.0
1.18500 530062.0
1.19500 508219.0
1.20500 495877.0
1.21500 477411.0
1.22500 460698.0
1.23500 446829.0
1.24500 432463.0
1.25500 414343.0
1.26500 403377.0
1.27500 394129.0
1.28500 380490.0
1.29500 370021.0
1.30500 361080.0
1.31500 345803.0
1.32500 334744.0
1.33500 328975.0
1.34500 319165.0
1.35500 309078.0
1.36500 303097.0
1.37500 292993.0
1.38500 284314.0
1.39500 279509.0
1.40500 273252.0
1.41500 264802.0
1.42500 259234.0
1.43500 255105.0
1.44500 249745.0
1.45500 243083.0
1.46500 239388.0
1.47500 234545.0
1.48500 226802.0
1.49500 221545.0
1.50500 218846.0
1.51500 212933.0
1.52500 207168.0
1.53500 203415.0
1.54500 199854.0
1.55500 196072.0
1.56500 195292.0
1.57500 194876.0
1.58500 190664.0
1.59500 186445.0
1.60500 183876.0
1.61500 188070.0
1.62500 178788.0
1.63500 178406.0
1.64500 178468.0
1.65500 174702.0
1.66500 171725.0
1.67500 171538.0
1.68500 170882.0
1.69500 168770.0
1.70500 167289.0
1.71500 167804.0
1.72500 166086.0
1.73500 162081.0
1.74500 163807.0
1.75500 165714.0
1.76500 162336.0
1.77500 163426.0
1.78500 166249.0
1.79500 168712.0
1.80500 169232.0
1.81500 172578.0
1.82500 177335.0
1.83500 177027.0
1.84500 178812.0
1.85500 184456.0
1.86500 189108.0
1.87500 192728.0
1.88500 199192.0
1.89500 210276.0
1.90500 216447.0
1.91500 224798.0
1.92500 243687.0
1.93500 262031.0
1.94500 276505.0
1.95500 304356.0
1.96500 342790.0
1.97500 383130.0
1.98500 447290.0
1.99500 565931.0
2.00500 731749.0
2.01500 930379.0
2.02500 1275168.0
2.03500 1944734.0
2.04500 2911176.0
2.05500 4104574.0
2.06500 5218198.0
2.07500 5929961.0
2.08500 6210684.0
2.09500 5972944.0
2.10500 5432341.0
2.11500 4765948.0
2.12500 4063952.0
2.13500 3420336.0
2.14500 2777121.0
2.15500 2224557.0
2.16500 1782926.0
2.17500 1423289.0
2.18500 1127697.0
2.19500 867274.0
2.20500 661967.0
2.21500 514812.0
2.22500 406555.0
2.23500 318406.0
2.24500 251928.0
2.25500 205133.0
2.26500 165619.0
2.27500 137905.0
2.28500 116598.0
2.29500 100579.0
2.30500 87563.0
2.31500 77083.0
2.32500 69423.0
2.33500 62193.0
2.34500 55359.0
2.35500 50968.0
2.36500 46799.0
2.37500 42744.0
2.38500 39968.0
2.39500 36455.0
2.40500 34435.0
2.41500 31686.0
2.42500 29596.0
2.43500 27692.0
2.44500 25463.0
2.45500 24071.0
2.46500 22845.0
2.47500 21502.0
2.48500 20919.0
2.49500 19275.0
2.50500 18500.0
2.51500 18044.0
2.52500 17449.0
2.53500 16683.0
2.54500 15747.0
2.55500 15122.0
2.56500 14499.0
2.57500 14076.0
2.58500 13724.0
2.59500 13001.0
2.60500 12518.0
2.61500 12308.0
2.62500 11782.0
2.63500 11471.0
2.64500 10622.0
2.65500 10459.0
2.66500 10301.0
2.67500 9548.0
2.68500 9540.0
2.69500 9300.0
2.70500 8872.0
2.71500 8755.0
2.72500 8373.0
2.73500 8315.0
2.74500 8156.0
2.75500 7847.0
2.76500 7850.0
2.77500 7484.0
2.78500 7382.0
2.79500 7188.0
2.80500 7068.0
2.81500 6846.0
2.82500 6668.0
2.83500 6549.0
2.84500 6384.0
2.85500 6171.0
2.86500 6184.0
2.87500 5924.0
2.88500 5833.0
2.89500 5731.0
2.90500 5534.0
2.91500 5485.0
2.92500 5360.0
2.93500 5343.0
2.94500 5124.0
2.95500 5050.0
2.96500 5104.0
2.97500 4811.0
2.98500 4705.0
2.99500 4653.0
3.00500 4626.0
3.01500 4470.0
3.02500 4503.0
3.03500 4352.0
3.04500 4393.0
3.05500 4200.0
3.06500 4081.0
3.07500 4112.0
3.08500 4006.0
3.09500 3912.0
3.10500 3720.0
3.11500 3718.0
3.12500 3626.0
3.13500 3472.0
3.14500 3427.0
3.15500 3293.0
3.16500 3151.0
3.17500 3168.0
3.18500 3093.0
3.19500 3144.0
3.20500 2960.0
3.21500 2912.0
3.22500 2902.0
3.23500 2863.0
3.24500 2749.0
3.25500 2715.0
3.26500 2690.0
3.27500 2623.0
3.28500 2598.0
3.29500 2472.0
3.30500 2468.0
3.31500 2511.0
3.32500 2385.0
3.33500 2296.0
3.34500 2292.0
3.35500 2213.0
3.36500 2110.0
3.37500 2087.0
3.38500 2042.0
3.39500 2150.0
3.40500 2007.0
3.41500 1998.0
3.42500 1984.0
3.43500 1897.0
3.44500 1892.0
3.45500 1895.0
3.46500 1763.0
3.47500 1815.0
3.48500 1707.0
3.49500 1791.0
3.50500 1719.0
3.51500 1729.0
3.52500 1673.0
3.53500 1698.0
3.54500 1629.0
3.55500 1522.0
3.56500 1529.0
3.57500 1456.0
3.58500 1465.0
3.59500 1447.0
3.60500 1496.0
3.61500 1402.0
3.62500 1345.0
3.63500 1309.0
3.64500 1351.0
3.65500 1318.0
3.66500 1325.0
3.67500 1289.0
3.68500 1314.0
3.69500 1325.0
3.70500 1254.0
3.71500 1270.0
3.72500 1299.0
3.73500 1309.0
3.74500 1349.0
3.75500 1310.0
3.76500 1316.0
3.77500 1257.0
3.78500 1339.0
3.79500 1393.0
3.80500 1369.0
3.81500 1417.0
3.82500 1604.0
3.83500 1692.0
3.84500 1655.0
3.85500 1772.0
3.86500 2214.0
3.87500 2508.0
3.88500 3060.0
3.89500 3511.0
3.90500 4654.0
3.91500 6084.0
3.92500 7787.0
3.93500 9524.0
3.94500 10372.0
3.95500 10916.0
3.96500 10912.0
3.97500 10571.0
3.98500 10049.0
3.99500 9503.0
4.00500 8926.0
4.01500 8360.0
4.02500 7997.0
4.03500 7320.0
4.04500 6860.0
4.05500 6282.0
4.06500 5588.0
4.07500 5144.0
4.08500 4596.0
4.09500 4280.0
4.10500 3743.0
4.11500 3387.0
4.12500 3127.0
4.13500 2882.0
4.14500 2633.0
4.15500 2426.0
4.16500 2218.0
4.17500 2111.0
4.18500 1785.0
4.19500 1712.0
4.20500 1800.0
4.21500 1600.0
4.22500 1640.0
4.23500 1450.0
4.24500 1460.0
4.25500 1373.0
4.26500 1383.0
4.27500 1307.0
4.28500 1318.0
4.29500 1123.0
4.30500 1093.0
4.31500 1054.0
4.32500 1062.0
4.33500 1039.0
4.34500 1032.0
4.35500 987.0
4.36500 985.0
4.37500 871.0
4.38500 813.0
4.39500 731.0
4.40500 757.0
4.41500 776.0
4.42500 794.0
4.43500 692.0
4.44500 725.0
4.45500 720.0
4.46500 611.0
4.47500 613.0
4.48500 586.0
4.49500 569.0
4.50500 615.0
4.51500 570.0
4.52500 573.0
4.53500 582.0
4.54500 596.0
4.55500 593.0
4.56500 509.0
4.57500 549.0
4.58500 512.0
4.59500 505.0
4.60500 474.0
4.61500 507.0
4.62500 427.0
4.63500 458.0
4.64500 447.0
4.65500 451.0
4.66500 448.0
4.67500 488.0
4.68500 418.0
4.69500 430.0
4.70500 441.0
4.71500 402.0
4.72500 468.0
4.73500 470.0
4.74500 489.0
4.75500 528.0
4.76500 509.0
4.77500 460.0
4.78500 416.0
4.79500 428.0
4.80500 411.0
4.81500 346.0
4.82500 424.0
4.83500 391.0
4.84500 416.0
4.85500 404.0
4.86500 401.0
4.87500 438.0
4.88500 423.0
4.89500 427.0
4.90500 393.0
4.91500 367.0
4.92500 426.0
4.93500 368.0
4.94500 397.0
4.95500 355.0
4.96500 373.0
4.97500 400.0
4.98500 403.0
4.99500 364.0
5.00500 307.0
5.01500 313.0
5.02500 339.0
5.03500 310.0
5.04500 309.0
5.05500 321.0
5.06500 255.0
5.07500 294.0
5.08500 346.0
5.09500 365.0
5.10500 371.0
5.11500 326.0
5.12500 289.0
5.13500 229.0
5.14500 303.0
5.15500 294.0
5.16500 308.0
5.17500 276.0
5.18500 227.0
5.19500 261.0
5.20500 240.0
5.21500 246.0
5.22500 263.0
5.23500 284.0
5.24500 279.0
5.25500 272.0
5.26500 305.0
5.27500 271.0
5.28500 201.0
5.29500 207.0
5.30500 224.0
5.31500 191.0
5.32500 190.0
5.33500 181.0
5.34500 230.0
5.35500 194.0
5.36500 256.0
5.37500 272.0
5.38500 271.0
5.39500 222.0
5.40500 266.0
5.41500 253.0
5.42500 254.0
5.43500 194.0
5.44500 224.0
5.45500 239.0
5.46500 230.0
5.47500 223.0
5.48500 252.0
5.49500 201.0
5.50500 204.0
5.51500 258.0
5.52500 280.0
5.53500 252.0
5.54500 230.0
5.55500 221.0
5.56500 205.0
5.57500 193.0
5.58500 169.0
5.59500 175.0
5.60500 172.0
5.61500 174.0
5.62500 174.0
5.63500 183.0
5.64500 182.0
5.65500 168.0
5.66500 202.0
5.67500 213.0
5.68500 223.0
5.69500 236.0
5.70500 260.0
5.71500 243.0
5.72500 268.0
5.73500 221.0
5.74500 228.0
5.75500 253.0
5.76500 298.0
5.77500 317.0
5.78500 342.0
5.79500 399.0
5.80500 525.0
5.81500 607.0
5.82500 821.0
5.83500 1099.0
5.84500 1596.0
5.85500 2243.0
5.86500 3098.0
5.87500 3689.0
5.88500 4190.0
5.89500 4381.0
5.90500 4192.0
5.91500 4065.0
5.92500 3589.0
5.93500 3351.0
5.94500 3082.0
5.95500 2797.0
5.96500 2452.0
5.97500 2150.0
5.98500 1802.0
5.99500 1653.0
6.00500 1467.0
6.01500 1270.0
6.02500 1093.0
6.03500 998.0
6.04500 851.0
6.05500 795.0
6.06500 659.0
6.07500 626.0
6.08500 609.0
6.09500 480.0
6.10500 460.0
6.11500 425.0
6.12500 372.0
6.13500 367.0
6.14500 330.0
6.15500 312.0
6.16500 288.0
6.17500 258.0
6.18500 245.0
6.19500 257.0
6.20500 286.0
6.21500 291.0
6.22500 233.0
6.23500 299.0
6.24500 209.0
6.25500 221.0
6.26500 247.0
6.27500 273.0
6.28500 249.0
6.29500 271.0
6.30500 282.0
6.31500 246.0
6.32500 188.0
6.33500 206.0
6.34500 209.0
6.35500 240.0
6.36500 193.0
6.37500 248.0
6.38500 189.0
6.39500 209.0
6.40500 201.0
6.41500 166.0
6.42500 173.0
6.43500 164.0
6.44500 190.0
6.45500 156.0
6.46500 160.0
6.47500 208.0
6.48500 205.0
6.49500 251.0
6.50500 205.0
6.51500 217.0
6.52500 232.0
6.53500 172.0
6.54500 221.0
6.55500 203.0
6.56500 175.0
6.57500 157.0
6.58500 238.0
6.59500 205.0
6.60500 213.0
6.61500 234.0
6.62500 201.0
6.63500 213.0
6.64500 200.0
6.65500 207.0
6.66500 182.0
6.67500 174.0
6.68500 176.0
6.69500 134.0
6.70500 164.0
6.71500 197.0
6.72500 152.0
6.73500 162.0
6.74500 168.0
6.75500 200.0
6.76500 185.0
6.77500 184.0
6.78500 143.0
6.79500 175.0
6.80500 217.0
6.81500 212.0
6.82500 255.0
6.83500 402.0
6.84500 372.0
6.85500 291.0
6.86500 174.0
6.87500 186.0
6.88500 150.0
6.89500 176.0
6.90500 182.0
6.91500 162.0
6.92500 174.0
6.93500 195.0
6.94500 209.0
6.95500 228.0
6.96500 154.0
6.97500 180.0
6.98500 190.0
6.99500 150.0
7.00500 114.0
7.01500 103.0
7.02500 162.0
7.03500 139.0
7.04500 145.0
7.05500 95.0
7.06500 155.0
7.07500 174.0
7.08500 136.0
7.09500 130.0
7.10500 125.0
7.11500 135.0
7.12500 131.0
7.13500 174.0
7.14500 133.0
7.15500 122.0
7.16500 163.0
7.17500 127.0
7.18500 140.0
7.19500 139.0
7.20500 194.0
7.21500 165.0
7.22500 215.0
7.23500 197.0
7.24500 169.0
7.25500 163.0
7.26500 149.0
7.27500 209.0
7.28500 204.0
7.29500 183.0
7.30500 217.0
7.31500 235.0
7.32500 225.0
7.33500 204.0
7.34500 195.0
7.35500 176.0
7.36500 169.0
7.37500 289.0
7.38500 234.0
7.39500 270.0
7.40500 275.0
7.41500 357.0
7.42500 279.0
7.43500 249.0
7.44500 235.0
7.45500 187.0
7.46500 249.0
7.47500 179.0
7.48500 183.0
7.49500 220.0
7.50500 185.0
7.51500 166.0
7.52500 157.0
7.53500 291.0
7.54500 288.0
7.55500 142.0
7.56500 232.0
7.57500 207.0
7.58500 211.0
7.59500 291.0
7.60500 223.0
7.61500 211.0
7.62500 222.0
7.63500 178.0
7.64500 225.0
7.65500 237.0
7.66500 244.0
7.67500 281.0
7.68500 335.0
7.69500 379.0
7.70500 359.0
7.71500 326.0
7.72500 243.0
7.73500 288.0
7.74500 297.0
7.75500 263.0
7.76500 320.0
7.77500 352.0
7.78500 354.0
7.79500 519.0
7.80500 551.0
7.81500 617.0
7.82500 625.0
7.83500 646.0
7.84500 591.0
7.85500 613.0
7.86500 606.0
7.87500 527.0
7.88500 477.0
7.89500 434.0
7.90500 427.0
7.91500 378.0
7.92500 336.0
7.93500 446.0
7.94500 331.0
7.95500 509.0
7.96500 387.0
7.97500 368.0
7.98500 371.0
7.99500 313.0
8.00500 365.0
8.01500 361.0
8.02500 505.0
8.03500 339.0
8.04500 387.0
8.05500 292.0
8.06500 284.0
8.07500 299.0
8.08500 277.0
8.09500 340.0
8.10500 243.0
8.11500 237.0
8.12500 272.0
8.13500 191.0
8.14500 201.0
8.15500 211.0
8.16500 196.0
8.17500 195.0
8.18500 171.0
8.19500 268.0
8.20500 244.0
8.21500 244.0
8.22500 229.0
8.23500 274.0
8.24500 253.0
8.25500 203.0
8.26500 278.0
8.27500 326.0
8.28500 253.0
8.29500 291.0
8.30500 221.0
8.31500 296.0
8.32500 232.0
8.33500 138.0
8.34500 117.0
8.35500 153.0
8.36500 179.0
8.37500 170.0
8.38500 154.0
8.39500 188.0
8.40500 220.0
8.41500 203.0
8.42500 217.0
8.43500 215.0
8.44500 174.0
8.45500 207.0
8.46500 204.0
8.47500 148.0
8.48500 253.0
8.49500 218.0
8.50500 224.0
8.51500 227.0
8.52500 210.0
8.53500 265.0
8.54500 273.0
8.55500 201.0
8.56500 176.0
8.57500 189.0
8.58500 246.0
8.59500 196.0
8.60500 211.0
8.61500 237.0
8.62500 209.0
8.63500 266.0
8.64500 307.0
8.65500 261.0
8.66500 190.0
8.67500 200.0
8.68500 183.0
8.69500 219.0
8.70500 153.0
8.71500 186.0
8.72500 201.0
8.73500 216.0
8.74500 245.0
8.75500 251.0
8.76500 205.0
8.77500 249.0
8.78500 231.0
8.79500 181.0
8.80500 253.0
8.81500 186.0
8.82500 265.0
8.83500 316.0
8.84500 250.0
8.85500 255.0
8.86500 251.0
8.87500 231.0
8.88500 178.0
8.89500 243.0
8.90500 185.0
8.91500 205.0
8.92500 260.0
8.93500 253.0
8.94500 263.0
8.95500 259.0
8.96500 263.0
8.97500 249.0
8.98500 245.0
8.99500 272.0
9.00500 310.0
9.01500 313.0
9.02500 296.0
9.03500 347.0
9.04500 310.0
9.05500 221.0
9.06500 243.0
9.07500 166.0
9.08500 203.0
9.09500 241.0
9.10500 270.0
9.11500 302.0
9.12500 353.0
9.13500 368.0
9.14500 280.0
9.15500 320.0
9.16500 280.0
9.17500 296.0
9.18500 304.0
9.19500 342.0
9.20500 375.0
9.21500 432.0
9.22500 396.0
9.23500 391.0
9.24500 425.0
9.25500 348.0
9.26500 285.0
9.27500 351.0
9.28500 281.0
9.29500 323.0
9.30500 250.0
9.31500 281.0
9.32500 245.0
9.33500 230.0
9.34500 207.0
9.35500 208.0
9.36500 208.0
9.37500 253.0
9.38500 224.0
9.39500 204.0
9.40500 278.0
9.41500 281.0
9.42500 206.0
9.43500 234.0
9.44500 170.0
9.45500 191.0
9.46500 226.0
9.47500 237.0
9.48500 224.0
9.49500 200.0
9.50500 238.0
9.51500 257.0
9.52500 312.0
9.53500 336.0
9.54500 347.0
9.55500 335.0
9.56500 286.0
9.57500 281.0
9.58500 294.0
9.59500 465.0
9.60500 476.0
9.61500 478.0
9.62500 390.0
9.63500 457.0
9.64500 447.0
9.65500 435.0
9.66500 411.0
9.67500 412.0
9.68500 436.0
9.69500 228.0
9.70500 209.0
9.71500 268.0
9.72500 284.0
9.73500 269.0
9.74500 340.0
9.75500 308.0
9.76500 311.0
9.77500 216.0
9.78500 267.0
9.79500 282.0
9.80500 176.0
9.81500 208.0
9.82500 169.0
9.83500 239.0
9.84500 182.0
9.85500 146.0
9.86500 234.0
9.87500 226.0
9.88500 212.0
9.89500 224.0
9.90500 241.0
9.91500 254.0
9.92500 258.0
9.93500 292.0
9.94500 288.0
9.95500 282.0
9.96500 573.0
9.97500 469.0
9.98500 346.0
9.99500 378.0
