0.00500 40134740.0
0.01500 49233508.0
0.02500 43445780.0
0.03500 30160822.0
0.04500 17632616.0
0.05500 9446291.0
0.06500 5531798.0
0.07500 4702228.0
0.08500 4984011.0
0.09500 5573254.0
0.10500 6174071.0
0.11500 6754006.0
0.12500 7365478.0
0.13500 7952725.0
0.14500 8563351.0
0.15500 9247037.0
0.16500 9729010.0
0.17500 10350691.0
0.18500 10992640.0
0.19500 11442051.0
0.20500 12003485.0
0.21500 12373801.0
0.22500 12971000.0
0.23500 13621092.0
0.24500 14082605.0
0.25500 14668885.0
0.26500 14981602.0
0.27500 15461085.0
0.28500 16100140.0
0.29500 16470466.0
0.30500 17143206.0
0.31500 17358040.0
0.32500 17710142.0
0.33500 18378164.0
0.34500 18782472.0
0.35500 19291988.0
0.36500 19559904.0
0.37500 19787764.0
0.38500 20429076.0
0.39500 20714676.0
0.40500 21173386.0
0.41500 21320208.0
0.42500 21504960.0
0.43500 22054144.0
0.44500 22334324.0
0.45500 22612736.0
0.46500 22837326.0
0.47500 22831504.0
0.48500 23447152.0
0.49500 23785740.0
0.50500 24106544.0
0.51500 24186256.0
0.52500 24210580.0
0.53500 24401932.0
0.54500 24634768.0
0.55500 24752244.0
0.56500 24794866.0
0.57500 24661940.0
0.58500 24876160.0
0.59500 25036436.0
0.60500 25002420.0
0.61500 24894696.0
0.62500 24498332.0
0.63500 24399476.0
0.64500 24379824.0
0.65500 23797700.0
0.66500 23305036.0
0.67500 22660850.0
0.68500 22020916.0
0.69500 21302930.0
0.70500 20211128.0
0.71500 19207284.0
0.72500 17937018.0
0.73500 16450818.0
0.74500 15139313.0
0.75500 13623960.0
0.76500 12301549.0
0.77500 11101672.0
0.78500 9999667.0
0.79500 9169263.0
0.80500 8214604.0
0.81500 7500903.0
0.82500 6816978.0
0.83500 6228386.0
0.84500 5848783.0
0.85500 5377038.0
0.86500 4923394.0
0.87500 4589781.0
0.88500 4216466.0
0.89500 3927757.0
0.90500 3704227.0
0.91500 3435686.0
0.92500 3225790.0
0.93500 2994448.0
0.94500 2810323.0
0.95500 2648516.0
0.96500 2475020.0
0.97500 2356536.0
0.98500 2211254.0
0.99500 2085191.0
1.00500 1984034.0
1.01500 1873398.0
1.02500 1781423.0
1.03500 1689212.0
1.04500 1590718.0
1.05500 1522244.0
1.06500 1450117.0
1.07500 1380477.0
1.08500 1306707.0
1.09500 1236616.0
1.10500 1177355.0
1.11500 1120654.0
1.12500 1062263.0
1.13500 1017211.0
1.14500 962810.0
1.15500 920536.0
1.16500 883007.0
1.17500 845855.0
1.18500 812261.0
1.19500 775579.0
1.20500 748291.0
1.21500 722354.0
1.22500 688631.0
1.23500 664104.0
1.24500 632948.0
1.25500 607032.0
1.26500 579854.0
1.27500 551738.0
1.28500 532114.0
1.29500 511087.0
1.30500 490534.0
1.31500 478000.0
1.32500 459699.0
1.33500 443433.0
1.34500 425368.0
1.35500 413301.0
1.36500 398583.0
1.37500 386072.0
1.38500 372946.0
1.39500 361044.0
1.40500 348734.0
1.41500 338713.0
1.42500 326180.0
1.43500 315430.0
1.44500 307726.0
1.45500 297218.0
1.46500 290778.0
1.47500 279837.0
1.48500 269802.0
1.49500 262412.0
1.50500 254390.0
1.51500 249133.0
1.52500 242833.0
1.53500 236629.0
1.54500 230065.0
1.55500 223967.0
1.56500 219995.0
1.57500 213946.0
1.58500 208579.0
1.59500 204148.0
1.60500 199488.0
1.61500 196205.0
1.62500 191001.0
1.63500 189463.0
1.64500 186331.0
1.65500 183041.0
1.66500 181866.0
1.67500 180135.0
1.68500 178724.0
1.69500 177480.0
1.70500 176035.0
1.71500 175508.0
1.72500 176167.0
1.73500 174767.0
1.74500 175600.0
1.75500 175645.0
1.76500 173950.0
1.77500 174948.0
1.78500 178810.0
1.79500 181578.0
1.80500 184631.0
1.81500 191107.0
1.82500 197697.0
1.83500 204407.0
1.84500 215161.0
1.85500 223439.0
1.86500 236775.0
1.87500 255462.0
1.88500 278280.0
1.89500 308140.0
1.90500 345862.0
1.91500 400893.0
1.92500 466621.0
1.93500 563469.0
1.94500 710350.0
1.95500 919691.0
1.96500 1259039.0
1.97500 1764278.0
1.98500 2419541.0
1.99500 2962881.0
2.00500 3080475.0
2.01500 2666930.0
2.02500 1949672.0
2.03500 1258603.0
2.04500 756763.0
2.05500 492825.0
2.06500 334034.0
2.07500 235518.0
2.08500 175135.0
2.09500 136519.0
2.10500 107473.0
2.11500 84931.0
2.12500 69913.0
2.13500 59114.0
2.14500 49498.0
2.15500 41604.0
2.16500 35537.0
2.17500 31001.0
2.18500 26824.0
2.19500 24015.0
2.20500 21587.0
2.21500 18989.0
2.22500 17282.0
2.23500 15813.0
2.24500 14081.0
2.25500 13024.0
2.26500 11895.0
2.27500 10521.0
2.28500 10028.0
2.29500 9227.0
2.30500 8545.0
2.31500 8136.0
2.32500 7691.0
2.33500 7139.0
2.34500 6619.0
2.35500 6325.0
2.36500 6114.0
2.37500 5857.0
2.38500 5497.0
2.39500 5357.0
2.40500 4999.0
2.41500 4795.0
2.42500 4680.0
2.43500 4357.0
2.44500 4387.0
2.45500 4182.0
2.46500 4074.0
2.47500 4018.0
2.48500 3791.0
2.49500 3766.0
2.50500 3670.0
2.51500 3557.0
2.52500 3442.0
2.53500 3459.0
2.54500 3266.0
2.55500 3132.0
2.56500 3176.0
2.57500 3048.0
2.58500 2817.0
2.59500 2763.0
2.60500 2873.0
2.61500 2679.0
2.62500 2671.0
2.63500 2665.0
2.64500 2583.0
2.65500 2394.0
2.66500 2441.0
2.67500 2390.0
2.68500 2430.0
2.69500 2271.0
2.70500 2245.0
2.71500 2163.0
2.72500 2173.0
2.73500 1980.0
2.74500 1987.0
2.75500 2027.0
2.76500 1935.0
2.77500 1795.0
2.78500 1755.0
2.79500 1615.0
2.80500 1498.0
2.81500 1350.0
2.82500 1177.0
2.83500 1038.0
2.84500 880.0
2.85500 797.0
2.86500 767.0
2.87500 683.0
2.88500 617.0
2.89500 548.0
2.90500 586.0
2.91500 559.0
2.92500 520.0
2.93500 510.0
2.94500 490.0
2.95500 480.0
2.96500 492.0
2.97500 518.0
2.98500 516.0
2.99500 617.0
3.00500 611.0
3.01500 622.0
3.02500 647.0
3.03500 645.0
3.04500 587.0
3.05500 464.0
3.06500 454.0
3.07500 499.0
3.08500 483.0
3.09500 469.0
3.10500 523.0
3.11500 482.0
3.12500 456.0
3.13500 405.0
3.14500 381.0
3.15500 406.0
3.16500 351.0
3.17500 374.0
3.18500 403.0
3.19500 350.0
3.20500 315.0
3.21500 320.0
3.22500 358.0
3.23500 327.0
3.24500 300.0
3.25500 299.0
3.26500 263.0
3.27500 253.0
3.28500 268.0
3.29500 274.0
3.30500 241.0
3.31500 263.0
3.32500 263.0
3.33500 237.0
3.34500 295.0
3.35500 247.0
3.36500 255.0
3.37500 266.0
3.38500 276.0
3.39500 259.0
3.40500 244.0
3.41500 262.0
3.42500 268.0
3.43500 269.0
3.44500 273.0
3.45500 273.0
3.46500 267.0
3.47500 287.0
3.48500 342.0
3.49500 330.0
3.50500 374.0
3.51500 425.0
3.52500 487.0
3.53500 467.0
3.54500 462.0
3.55500 564.0
3.56500 600.0
3.57500 626.0
3.58500 659.0
3.59500 813.0
3.60500 923.0
3.61500 1012.0
3.62500 1280.0
3.63500 1659.0
3.64500 1841.0
3.65500 1962.0
3.66500 2387.0
3.67500 3244.0
3.68500 4428.0
3.69500 5399.0
3.70500 7097.0
3.71500 9046.0
3.72500 12692.0
3.73500 19696.0
3.74500 30076.0
3.75500 44967.0
3.76500 76418.0
3.77500 139739.0
3.78500 235538.0
3.79500 328425.0
3.80500 358960.0
3.81500 305739.0
3.82500 206192.0
3.83500 118519.0
3.84500 64907.0
3.85500 43286.0
3.86500 32030.0
3.87500 24168.0
3.88500 19495.0
3.89500 16723.0
3.90500 14313.0
3.91500 11784.0
3.92500 10223.0
3.93500 9696.0
3.94500 8336.0
3.95500 7116.0
3.96500 6555.0
3.97500 6002.0
3.98500 5495.0
3.99500 5146.0
4.00500 4836.0
4.01500 4380.0
4.02500 3987.0
4.03500 3769.0
4.04500 3532.0
4.05500 3277.0
4.06500 2932.0
4.07500 2829.0
4.08500 2582.0
4.09500 2430.0
4.10500 2312.0
4.11500 2233.0
4.12500 2216.0
4.13500 2005.0
4.14500 1922.0
4.15500 1888.0
4.16500 1755.0
4.17500 1681.0
4.18500 1674.0
4.19500 1634.0
4.20500 1534.0
4.21500 1362.0
4.22500 1414.0
4.23500 1356.0
4.24500 1300.0
4.25500 1282.0
4.26500 1255.0
4.27500 1131.0
4.28500 1198.0
4.29500 1130.0
4.30500 1120.0
4.31500 1142.0
4.32500 1013.0
4.33500 983.0
4.34500 912.0
4.35500 860.0
4.36500 889.0
4.37500 876.0
4.38500 868.0
4.39500 834.0
4.40500 760.0
4.41500 771.0
4.42500 740.0
4.43500 707.0
4.44500 755.0
4.45500 793.0
4.46500 783.0
4.47500 742.0
4.48500 774.0
4.49500 722.0
4.50500 684.0
4.51500 654.0
4.52500 656.0
4.53500 645.0
4.54500 591.0
4.55500 578.0
4.56500 627.0
4.57500 613.0
4.58500 605.0
4.59500 591.0
4.60500 601.0
4.61500 508.0
4.62500 488.0
4.63500 495.0
4.64500 433.0
4.65500 407.0
4.66500 417.0
4.67500 426.0
4.68500 392.0
4.69500 385.0
4.70500 381.0
4.71500 405.0
4.72500 345.0
4.73500 360.0
4.74500 411.0
4.75500 434.0
4.76500 416.0
4.77500 423.0
4.78500 408.0
4.79500 401.0
4.80500 374.0
4.81500 400.0
4.82500 392.0
4.83500 360.0
4.84500 339.0
4.85500 331.0
4.86500 343.0
4.87500 347.0
4.88500 323.0
4.89500 365.0
4.90500 338.0
4.91500 302.0
4.92500 326.0
4.93500 325.0
4.94500 285.0
4.95500 292.0
4.96500 270.0
4.97500 299.0
4.98500 249.0
4.99500 288.0
5.00500 281.0
5.01500 283.0
5.02500 238.0
5.03500 246.0
5.04500 215.0
5.05500 246.0
5.06500 246.0
5.07500 233.0
5.08500 207.0
5.09500 224.0
5.10500 193.0
5.11500 220.0
5.12500 205.0
5.13500 207.0
5.14500 213.0
5.15500 195.0
5.16500 201.0
5.17500 206.0
5.18500 191.0
5.19500 219.0
5.20500 186.0
5.21500 190.0
5.22500 198.0
5.23500 179.0
5.24500 186.0
5.25500 175.0
5.26500 203.0
5.27500 198.0
5.28500 202.0
5.29500 191.0
5.30500 220.0
5.31500 170.0
5.32500 219.0
5.33500 188.0
5.34500 222.0
5.35500 201.0
5.36500 222.0
5.37500 209.0
5.38500 202.0
5.39500 189.0
5.40500 192.0
5.41500 164.0
5.42500 186.0
5.43500 191.0
5.44500 164.0
5.45500 186.0
5.46500 203.0
5.47500 184.0
5.48500 190.0
5.49500 154.0
5.50500 165.0
5.51500 172.0
5.52500 192.0
5.53500 285.0
5.54500 271.0
5.55500 316.0
5.56500 371.0
5.57500 525.0
5.58500 708.0
5.59500 1031.0
5.60500 1575.0
5.61500 2921.0
5.62500 5310.0
5.63500 7839.0
5.64500 9333.0
5.65500 9312.0
5.66500 6990.0
5.67500 4365.0
5.68500 2593.0
5.69500 1585.0
5.70500 1130.0
5.71500 903.0
5.72500 707.0
5.73500 627.0
5.74500 580.0
5.75500 531.0
5.76500 457.0
5.77500 412.0
5.78500 442.0
5.79500 363.0
5.80500 314.0
5.81500 277.0
5.82500 306.0
5.83500 253.0
5.84500 256.0
5.85500 240.0
5.86500 254.0
5.87500 229.0
5.88500 244.0
5.89500 244.0
5.90500 221.0
5.91500 216.0
5.92500 241.0
5.93500 235.0
5.94500 202.0
5.95500 213.0
5.96500 221.0
5.97500 218.0
5.98500 190.0
5.99500 187.0
6.00500 223.0
6.01500 223.0
6.02500 215.0
6.03500 226.0
6.04500 224.0
6.05500 203.0
6.06500 197.0
6.07500 176.0
6.08500 175.0
6.09500 188.0
6.10500 174.0
6.11500 180.0
6.12500 196.0
6.13500 188.0
6.14500 190.0
6.15500 162.0
6.16500 163.0
6.17500 153.0
6.18500 191.0
6.19500 147.0
6.20500 193.0
6.21500 136.0
6.22500 184.0
6.23500 166.0
6.24500 160.0
6.25500 175.0
6.26500 176.0
6.27500 140.0
6.28500 163.0
6.29500 187.0
6.30500 152.0
6.31500 140.0
6.32500 124.0
6.33500 145.0
6.34500 188.0
6.35500 161.0
6.36500 167.0
6.37500 142.0
6.38500 167.0
6.39500 121.0
6.40500 116.0
6.41500 145.0
6.42500 172.0
6.43500 158.0
6.44500 184.0
6.45500 192.0
6.46500 160.0
6.47500 184.0
6.48500 166.0
6.49500 187.0
6.50500 199.0
6.51500 186.0
6.52500 166.0
6.53500 183.0
6.54500 182.0
6.55500 180.0
6.56500 174.0
6.57500 188.0
6.58500 214.0
6.59500 215.0
6.60500 203.0
6.61500 175.0
6.62500 159.0
6.63500 153.0
6.64500 156.0
6.65500 127.0
6.66500 101.0
6.67500 131.0
6.68500 128.0
6.69500 130.0
6.70500 138.0
6.71500 125.0
6.72500 125.0
6.73500 120.0
6.74500 128.0
6.75500 117.0
6.76500 152.0
6.77500 150.0
6.78500 120.0
6.79500 156.0
6.80500 127.0
6.81500 163.0
6.82500 155.0
6.83500 161.0
6.84500 175.0
6.85500 152.0
6.86500 194.0
6.87500 190.0
6.88500 150.0
6.89500 149.0
6.90500 146.0
6.91500 143.0
6.92500 116.0
6.93500 123.0
6.94500 117.0
6.95500 122.0
6.96500 122.0
6.97500 135.0
6.98500 121.0
6.99500 123.0
7.00500 120.0
7.01500 106.0
7.02500 159.0
7.03500 105.0
7.04500 107.0
7.05500 112.0
7.06500 123.0
7.07500 151.0
7.08500 160.0
7.09500 168.0
7.10500 146.0
7.11500 149.0
7.12500 146.0
7.13500 139.0
7.14500 129.0
7.15500 140.0
7.16500 157.0
7.17500 146.0
7.18500 151.0
7.19500 154.0
7.20500 120.0
7.21500 87.0
7.22500 99.0
7.23500 99.0
7.24500 87.0
7.25500 86.0
7.26500 97.0
7.27500 82.0
7.28500 80.0
7.29500 99.0
7.30500 93.0
7.31500 118.0
7.32500 112.0
7.33500 119.0
7.34500 150.0
7.35500 131.0
7.36500 143.0
7.37500 158.0
7.38500 148.0
7.39500 167.0
7.40500 175.0
7.41500 184.0
7.42500 159.0
7.43500 174.0
7.44500 227.0
7.45500 313.0
7.46500 425.0
7.47500 594.0
7.48500 878.0
7.49500 1021.0
7.50500 1129.0
7.51500 941.0
7.52500 676.0
7.53500 491.0
7.54500 343.0
7.55500 303.0
7.56500 217.0
7.57500 252.0
7.58500 255.0
7.59500 217.0
7.60500 173.0
7.61500 232.0
7.62500 163.0
7.63500 156.0
7.64500 199.0
7.65500 187.0
7.66500 174.0
7.67500 187.0
7.68500 199.0
7.69500 235.0
7.70500 199.0
7.71500 188.0
7.72500 194.0
7.73500 144.0
7.74500 159.0
7.75500 143.0
7.76500 144.0
7.77500 225.0
7.78500 160.0
7.79500 161.0
7.80500 171.0
7.81500 181.0
7.82500 189.0
7.83500 200.0
7.84500 163.0
7.85500 150.0
7.86500 144.0
7.87500 167.0
7.88500 146.0
7.89500 131.0
7.90500 115.0
7.91500 147.0
7.92500 154.0
7.93500 99.0
7.94500 110.0
7.95500 95.0
7.96500 141.0
7.97500 144.0
7.98500 136.0
7.99500 149.0
8.00500 167.0
8.01500 146.0
8.02500 152.0
8.03500 145.0
8.04500 153.0
8.05500 151.0
8.06500 128.0
8.07500 169.0
8.08500 180.0
8.09500 149.0
8.10500 145.0
8.11500 186.0
8.12500 142.0
8.13500 138.0
8.14500 156.0
8.15500 128.0
8.16500 134.0
8.17500 151.0
8.18500 230.0
8.19500 143.0
8.20500 139.0
8.21500 140.0
8.22500 179.0
8.23500 159.0
8.24500 162.0
8.25500 188.0
8.26500 188.0
8.27500 174.0
8.28500 180.0
8.29500 151.0
8.30500 162.0
8.31500 162.0
8.32500 194.0
8.33500 181.0
8.34500 142.0
8.35500 118.0
8.36500 131.0
8.37500 134.0
8.38500 125.0
8.39500 129.0
8.40500 128.0
8.41500 167.0
8.42500 137.0
8.43500 123.0
8.44500 134.0
8.45500 130.0
8.46500 132.0
8.47500 161.0
8.48500 142.0
8.49500 156.0
8.50500 144.0
8.51500 105.0
8.52500 148.0
8.53500 148.0
8.54500 124.0
8.55500 124.0
8.56500 110.0
8.57500 121.0
8.58500 137.0
8.59500 132.0
8.60500 129.0
8.61500 145.0
8.62500 116.0
8.63500 114.0
8.64500 151.0
8.65500 113.0
8.66500 100.0
8.67500 113.0
8.68500 103.0
8.69500 97.0
8.70500 102.0
8.71500 102.0
8.72500 125.0
8.73500 110.0
8.74500 93.0
8.75500 140.0
8.76500 112.0
8.77500 96.0
8.78500 62.0
8.79500 84.0
8.80500 91.0
8.81500 96.0
8.82500 115.0
8.83500 111.0
8.84500 109.0
8.85500 104.0
8.86500 78.0
8.87500 61.0
8.88500 108.0
8.89500 136.0
8.90500 112.0
8.91500 93.0
8.92500 139.0
8.93500 126.0
8.94500 100.0
8.95500 138.0
8.96500 128.0
8.97500 128.0
8.98500 136.0
8.99500 134.0
9.00500 137.0
9.01500 152.0
9.02500 141.0
9.03500 136.0
9.04500 151.0
9.05500 132.0
9.06500 158.0
9.07500 110.0
9.08500 98.0
9.09500 104.0
9.10500 122.0
9.11500 116.0
9.12500 147.0
9.13500 123.0
9.14500 157.0
9.15500 146.0
9.16500 149.0
9.17500 132.0
9.18500 125.0
9.19500 129.0
9.20500 128.0
9.21500 106.0
9.22500 120.0
9.23500 121.0
9.24500 102.0
9.25500 125.0
9.26500 118.0
9.27500 123.0
9.28500 134.0
9.29500 129.0
9.30500 119.0
9.31500 116.0
9.32500 124.0
9.33500 208.0
9.34500 254.0
9.35500 318.0
9.36500 335.0
9.37500 280.0
9.38500 254.0
9.39500 227.0
9.40500 192.0
9.41500 154.0
9.42500 146.0
9.43500 122.0
9.44500 140.0
9.45500 119.0
9.46500 129.0
9.47500 143.0
9.48500 152.0
9.49500 132.0
9.50500 175.0
9.51500 152.0
9.52500 112.0
9.53500 127.0
9.54500 109.0
9.55500 146.0
9.56500 130.0
9.57500 140.0
9.58500 99.0
9.59500 129.0
9.60500 117.0
9.61500 127.0
9.62500 100.0
9.63500 139.0
9.64500 130.0
9.65500 160.0
9.66500 112.0
9.67500 140.0
9.68500 118.0
9.69500 139.0
9.70500 163.0
9.71500 174.0
9.72500 159.0
9.73500 138.0
9.74500 148.0
9.75500 93.0
9.76500 130.0
9.77500 121.0
9.78500 120.0
9.79500 122.0
9.80500 112.0
9.81500 149.0
9.82500 128.0
9.83500 122.0
9.84500 108.0
9.85500 122.0
9.86500 122.0
9.87500 114.0
9.88500 102.0
9.89500 109.0
9.90500 144.0
9.91500 114.0
9.92500 130.0
9.93500 105.0
9.94500 93.0
9.95500 119.0
9.96500 107.0
9.97500 89.0
9.98500 93.0
9.99500 96.0
10.00500 107.0
10.01500 137.0
10.02500 138.0
10.03500 137.0
10.04500 115.0
10.05500 112.0
10.06500 130.0
10.07500 128.0
10.08500 134.0
10.09500 174.0
10.10500 191.0
10.11500 161.0
10.12500 156.0
10.13500 154.0
10.14500 141.0
10.15500 166.0
10.16500 192.0
10.17500 201.0
10.18500 153.0
10.19500 114.0
10.20500 147.0
10.21500 174.0
10.22500 144.0
10.23500 150.0
10.24500 144.0
10.25500 196.0
10.26500 171.0
10.27500 175.0
10.28500 133.0
10.29500 116.0
10.30500 173.0
10.31500 135.0
10.32500 116.0
10.33500 118.0
10.34500 176.0
10.35500 180.0
10.36500 145.0
10.37500 136.0
10.38500 144.0
10.39500 132.0
10.40500 137.0
10.41500 164.0
10.42500 144.0
10.43500 167.0
10.44500 158.0
10.45500 162.0
10.46500 190.0
10.47500 165.0
10.48500 166.0
10.49500 172.0
10.50500 154.0
10.51500 176.0
10.52500 202.0
10.53500 210.0
10.54500 181.0
10.55500 168.0
10.56500 159.0
10.57500 199.0
10.58500 196.0
10.59500 126.0
10.60500 134.0
10.61500 139.0
10.62500 138.0
10.63500 151.0
10.64500 135.0
10.65500 141.0
10.66500 107.0
10.67500 119.0
10.68500 130.0
10.69500 123.0
10.70500 108.0
10.71500 134.0
10.72500 112.0
10.73500 127.0
10.74500 118.0
10.75500 90.0
10.76500 119.0
10.77500 125.0
10.78500 128.0
10.79500 101.0
10.80500 96.0
10.81500 126.0
10.82500 143.0
10.83500 101.0
10.84500 131.0
10.85500 177.0
10.86500 180.0
10.87500 194.0
10.88500 194.0
10.89500 223.0
10.90500 219.0
10.91500 167.0
10.92500 173.0
10.93500 171.0
10.94500 175.0
10.95500 113.0
10.96500 136.0
10.97500 142.0
10.98500 153.0
10.99500 104.0
11.00500 108.0
11.01500 112.0
11.02500 112.0
11.03500 103.0
11.04500 115.0
11.05500 113.0
11.06500 99.0
11.07500 132.0
11.08500 155.0
11.09500 168.0
11.10500 173.0
11.11500 174.0
11.12500 184.0
11.13500 205.0
11.14500 180.0
11.15500 197.0
11.16500 172.0
11.17500 157.0
11.18500 150.0
11.19500 197.0
11.20500 211.0
11.21500 172.0
11.22500 197.0
11.23500 230.0
11.24500 179.0
11.25500 156.0
11.26500 152.0
11.27500 127.0
11.28500 99.0
11.29500 119.0
11.30500 128.0
11.31500 142.0
11.32500 151.0
11.33500 116.0
11.34500 120.0
11.35500 104.0
11.36500 76.0
11.37500 120.0
11.38500 156.0
11.39500 167.0
11.40500 167.0
11.41500 148.0
11.42500 179.0
11.43500 162.0
11.44500 187.0
11.45500 148.0
11.46500 169.0
11.47500 158.0
11.48500 175.0
11.49500 166.0
11.50500 160.0
11.51500 147.0
11.52500 137.0
11.53500 141.0
11.54500 155.0
11.55500 147.0
11.56500 139.0
11.57500 128.0
11.58500 142.0
11.59500 185.0
11.60500 181.0
11.61500 152.0
11.62500 128.0
11.63500 141.0
11.64500 222.0
11.65500 205.0
11.66500 220.0
11.67500 174.0
11.68500 116.0
11.69500 134.0
11.70500 137.0
11.71500 132.0
11.72500 156.0
11.73500 119.0
11.74500 154.0
11.75500 188.0
11.76500 203.0
11.77500 159.0
11.78500 160.0
11.79500 177.0
11.80500 112.0
11.81500 104.0
11.82500 110.0
11.83500 148.0
11.84500 170.0
11.85500 140.0
11.86500 151.0
11.87500 136.0
11.88500 133.0
11.89500 156.0
11.90500 139.0
11.91500 168.0
11.92500 124.0
11.93500 143.0
11.94500 147.0
11.95500 120.0
11.96500 95.0
11.97500 85.0
11.98500 127.0
11.99500 126.0
