0.00500 30374868.0
0.01500 35285200.0
0.02500 31540996.0
0.03500 25286260.0
0.04500 18012080.0
0.05500 11256246.0
0.06500 7111312.0
0.07500 5933551.0
0.08500 6221874.0
0.09500 6835290.0
0.10500 7548520.0
0.11500 8302217.0
0.12500 9041893.0
0.13500 9711696.0
0.14500 10395786.0
0.15500 11009056.0
0.16500 11721676.0
0.17500 12375992.0
0.18500 13027286.0
0.19500 13663630.0
0.20500 14347329.0
0.21500 14950411.0
0.22500 15576284.0
0.23500 16140906.0
0.24500 16799618.0
0.25500 17459726.0
0.26500 18073922.0
0.27500 18581308.0
0.28500 19218596.0
0.29500 19708596.0
0.30500 20235552.0
0.31500 20757968.0
0.32500 21233296.0
0.33500 21780828.0
0.34500 22236322.0
0.35500 22614472.0
0.36500 23129172.0
0.37500 23576746.0
0.38500 24079790.0
0.39500 24482380.0
0.40500 24807824.0
0.41500 25344892.0
0.42500 25763126.0
0.43500 25951196.0
0.44500 26350556.0
0.45500 26760922.0
0.46500 27116576.0
0.47500 27595148.0
0.48500 27786216.0
0.49500 28137278.0
0.50500 28391582.0
0.51500 28750442.0
0.52500 29052132.0
0.53500 29253552.0
0.54500 29351716.0
0.55500 29703996.0
0.56500 29871808.0
0.57500 30140812.0
0.58500 30241776.0
0.59500 30423376.0
0.60500 30480192.0
0.61500 30495964.0
0.62500 30461808.0
0.63500 30540668.0
0.64500 30534880.0
0.65500 30298604.0
0.66500 30040280.0
0.67500 29481596.0
0.68500 28850898.0
0.69500 27824820.0
0.70500 26127008.0
0.71500 23541832.0
0.72500 20533372.0
0.73500 17240008.0
0.74500 14463452.0
0.75500 12310285.0
0.76500 10563651.0
0.77500 9255749.0
0.78500 8199152.0
0.79500 7297909.0
0.80500 6582950.0
0.81500 5952238.0
0.82500 5418943.0
0.83500 4947137.0
0.84500 4545046.0
0.85500 4217421.0
0.86500 3876331.0
0.87500 3591963.0
0.88500 3347333.0
0.89500 3121591.0
0.90500 2912401.0
0.91500 2740738.0
0.92500 2607057.0
0.93500 2420363.0
0.94500 2257693.0
0.95500 2172226.0
0.96500 2034388.0
0.97500 1882351.0
0.98500 1803335.0
0.99500 1726685.0
1.00500 1598997.0
1.01500 1514862.0
1.02500 1497284.0
1.03500 1405975.0
1.04500 1281673.0
1.05500 1249039.0
1.06500 1221211.0
1.07500 1122131.0
1.08500 1038032.0
1.09500 1036568.0
1.10500 1013526.0
1.11500 924455.0
1.12500 870720.0
1.13500 881173.0
1.14500 859274.0
1.15500 770016.0
1.16500 727419.0
1.17500 743245.0
1.18500 722495.0
1.19500 645800.0
1.20500 624802.0
1.21500 636344.0
1.22500 620443.0
1.23500 551088.0
1.24500 519136.0
1.25500 542946.0
1.26500 532664.0
1.27500 474505.0
1.28500 443754.0
1.29500 460516.0
1.30500 464948.0
1.31500 418072.0
1.32500 384024.0
1.33500 394417.0
1.34500 406298.0
1.35500 372685.0
1.36500 335529.0
1.37500 336189.0
1.38500 356321.0
1.39500 338247.0
1.40500 294112.0
1.41500 286219.0
1.42500 303965.0
1.43500 304698.0
1.44500 266427.0
1.45500 246640.0
1.46500 259221.0
1.47500 272481.0
1.48500 252034.0
1.49500 220340.0
1.50500 220942.0
1.51500 238716.0
1.52500 231969.0
1.53500 202365.0
1.54500 188177.0
1.55500 201022.0
1.56500 210386.0
1.57500 189336.0
1.58500 164926.0
1.59500 169448.0
1.60500 183358.0
1.61500 176176.0
1.62500 154723.0
1.63500 146222.0
1.64500 156896.0
1.65500 163456.0
1.66500 147883.0
1.67500 129023.0
1.68500 131077.0
1.69500 144719.0
1.70500 140718.0
1.71500 122054.0
1.72500 112382.0
1.73500 121339.0
1.74500 129896.0
1.75500 119396.0
1.76500 102623.0
1.77500 101265.0
1.78500 111818.0
1.79500 112984.0
1.80500 98690.0
1.81500 88443.0
1.82500 93610.0
1.83500 101724.0
1.84500 97899.0
1.85500 84263.0
1.86500 79523.0
1.87500 88117.0
1.88500 93809.0
1.89500 84945.0
1.90500 73438.0
1.91500 72648.0
1.92500 81648.0
1.93500 82268.0
1.94500 72117.0
1.95500 64104.0
1.96500 67230.0
1.97500 75036.0
1.98500 72663.0
1.99500 62135.0
2.00500 58013.0
2.01500 64185.0
2.02500 69172.0
2.03500 63477.0
2.04500 53986.0
2.05500 53865.0
2.06500 60152.0
2.07500 62199.0
2.08500 56034.0
2.09500 48408.0
2.10500 49849.0
2.11500 56781.0
2.12500 57150.0
2.13500 49923.0
2.14500 43898.0
2.15500 47630.0
2.16500 52735.0
2.17500 50915.0
2.18500 44095.0
2.19500 41547.0
2.20500 46435.0
2.21500 50583.0
2.22500 46939.0
2.23500 39881.0
2.24500 39282.0
2.25500 45066.0
2.26500 48087.0
2.27500 43649.0
2.28500 37091.0
2.29500 37884.0
2.30500 43444.0
2.31500 45339.0
2.32500 39931.0
2.33500 35165.0
2.34500 38065.0
2.35500 44892.0
2.36500 46259.0
2.37500 39414.0
2.38500 35012.0
2.39500 39612.0
2.40500 46012.0
2.41500 45257.0
2.42500 39160.0
2.43500 37327.0
2.44500 43482.0
2.45500 50173.0
2.46500 49053.0
2.47500 43337.0
2.48500 43210.0
2.49500 54504.0
2.50500 63167.0
2.51500 60084.0
2.52500 53627.0
2.53500 60328.0
2.54500 78708.0
2.55500 92636.0
2.56500 96273.0
2.57500 125014.0
2.58500 247487.0
2.59500 485496.0
2.60500 786132.0
2.61500 1041074.0
2.62500 1125661.0
2.63500 1018760.0
2.64500 777419.0
2.65500 525012.0
2.66500 325035.0
2.67500 218797.0
2.68500 172099.0
2.69500 147864.0
2.70500 123619.0
2.71500 99525.0
2.72500 81029.0
2.73500 69240.0
2.74500 61682.0
2.75500 54855.0
2.76500 48799.0
2.77500 43300.0
2.78500 38836.0
2.79500 35071.0
2.80500 31870.0
2.81500 29281.0
2.82500 26660.0
2.83500 23538.0
2.84500 22231.0
2.85500 20755.0
2.86500 19429.0
2.87500 18058.0
2.88500 16227.0
2.89500 15468.0
2.90500 14575.0
2.91500 13934.0
2.92500 13687.0
2.93500 12495.0
2.94500 12025.0
2.95500 11131.0
2.96500 11215.0
2.97500 10472.0
2.98500 9888.0
2.99500 9551.0
3.00500 9197.0
3.01500 8966.0
3.02500 8559.0
3.03500 7848.0
3.04500 7371.0
3.05500 7560.0
3.06500 7436.0
3.07500 7292.0
3.08500 6581.0
3.09500 6416.0
3.10500 6089.0
3.11500 6267.0
3.12500 5840.0
3.13500 5409.0
3.14500 5009.0
3.15500 5253.0
3.16500 5193.0
3.17500 5048.0
3.18500 4663.0
3.19500 4591.0
3.20500 4497.0
3.21500 4594.0
3.22500 4505.0
3.23500 4027.0
3.24500 3696.0
3.25500 3890.0
3.26500 3766.0
3.27500 3911.0
3.28500 3424.0
3.29500 3379.0
3.30500 3429.0
3.31500 3572.0
3.32500 3251.0
3.33500 3183.0
3.34500 2970.0
3.35500 2900.0
3.36500 3052.0
3.37500 2746.0
3.38500 2512.0
3.39500 2472.0
3.40500 2442.0
3.41500 2520.0
3.42500 2444.0
3.43500 2125.0
3.44500 2070.0
3.45500 2219.0
3.46500 2204.0
3.47500 2130.0
3.48500 1992.0
3.49500 1946.0
3.50500 1855.0
3.51500 1988.0
3.52500 1856.0
3.53500 1840.0
3.54500 1954.0
3.55500 1897.0
3.56500 1884.0
3.57500 1828.0
3.58500 1666.0
3.59500 1892.0
3.60500 1637.0
3.61500 1677.0
3.62500 1462.0
3.63500 1436.0
3.64500 1320.0
3.65500 1355.0
3.66500 1351.0
3.67500 1428.0
3.68500 1178.0
3.69500 1137.0
3.70500 1240.0
3.71500 1381.0
3.72500 1409.0
3.73500 1272.0
3.74500 1175.0
3.75500 1163.0
3.76500 1226.0
3.77500 1170.0
3.78500 1200.0
3.79500 1142.0
3.80500 1207.0
3.81500 1197.0
3.82500 1131.0
3.83500 1082.0
3.84500 1023.0
3.85500 891.0
3.86500 952.0
3.87500 998.0
3.88500 856.0
3.89500 907.0
3.90500 1050.0
3.91500 1011.0
3.92500 936.0
3.93500 820.0
3.94500 787.0
3.95500 807.0
3.96500 706.0
3.97500 823.0
3.98500 888.0
3.99500 867.0
4.00500 798.0
4.01500 829.0
4.02500 884.0
4.03500 811.0
4.04500 842.0
4.05500 1007.0
4.06500 833.0
4.07500 729.0
4.08500 803.0
4.09500 751.0
4.10500 851.0
4.11500 882.0
4.12500 789.0
4.13500 693.0
4.14500 603.0
4.15500 665.0
4.16500 656.0
4.17500 708.0
4.18500 666.0
4.19500 549.0
4.20500 554.0
4.21500 687.0
4.22500 742.0
4.23500 994.0
4.24500 1032.0
4.25500 1092.0
4.26500 966.0
4.27500 855.0
4.28500 761.0
4.29500 786.0
4.30500 814.0
4.31500 873.0
4.32500 828.0
4.33500 687.0
4.34500 747.0
4.35500 806.0
4.36500 766.0
4.37500 659.0
4.38500 590.0
4.39500 555.0
4.40500 566.0
4.41500 560.0
4.42500 583.0
4.43500 578.0
4.44500 532.0
4.45500 599.0
4.46500 682.0
4.47500 709.0
4.48500 627.0
4.49500 548.0
4.50500 556.0
4.51500 547.0
4.52500 525.0
4.53500 425.0
4.54500 438.0
4.55500 497.0
4.56500 588.0
4.57500 600.0
4.58500 443.0
4.59500 429.0
4.60500 463.0
4.61500 443.0
4.62500 451.0
4.63500 442.0
4.64500 388.0
4.65500 325.0
4.66500 382.0
4.67500 362.0
4.68500 327.0
4.69500 354.0
4.70500 384.0
4.71500 345.0
4.72500 414.0
4.73500 369.0
4.74500 355.0
4.75500 441.0
4.76500 490.0
4.77500 471.0
4.78500 420.0
4.79500 385.0
4.80500 400.0
4.81500 356.0
4.82500 545.0
4.83500 453.0
4.84500 555.0
4.85500 567.0
4.86500 646.0
4.87500 560.0
4.88500 544.0
4.89500 506.0
4.90500 432.0
4.91500 403.0
4.92500 419.0
4.93500 467.0
4.94500 610.0
4.95500 505.0
4.96500 608.0
4.97500 672.0
4.98500 690.0
4.99500 644.0
5.00500 671.0
5.01500 638.0
5.02500 551.0
5.03500 509.0
5.04500 653.0
5.05500 792.0
5.06500 1287.0
5.07500 1988.0
5.08500 2855.0
5.09500 3879.0
5.10500 4707.0
5.11500 4796.0
5.12500 4262.0
5.13500 3586.0
5.14500 2764.0
5.15500 2543.0
5.16500 2432.0
5.17500 2319.0
5.18500 1921.0
5.19500 1661.0
5.20500 1257.0
5.21500 1290.0
5.22500 1328.0
5.23500 1308.0
5.24500 1272.0
5.25500 1275.0
5.26500 1353.0
5.27500 1146.0
5.28500 1358.0
5.29500 1309.0
5.30500 1367.0
5.31500 1182.0
5.32500 1361.0
5.33500 1431.0
5.34500 1173.0
5.35500 1004.0
5.36500 973.0
5.37500 876.0
5.38500 958.0
5.39500 975.0
5.40500 852.0
5.41500 747.0
5.42500 793.0
5.43500 670.0
5.44500 687.0
5.45500 671.0
5.46500 590.0
5.47500 601.0
5.48500 656.0
5.49500 682.0
5.50500 666.0
5.51500 735.0
5.52500 651.0
5.53500 633.0
5.54500 615.0
5.55500 590.0
5.56500 657.0
5.57500 541.0
5.58500 604.0
5.59500 521.0
5.60500 563.0
5.61500 587.0
5.62500 635.0
5.63500 569.0
5.64500 551.0
5.65500 565.0
5.66500 587.0
5.67500 594.0
5.68500 681.0
5.69500 642.0
5.70500 655.0
5.71500 652.0
5.72500 555.0
5.73500 637.0
5.74500 692.0
5.75500 635.0
5.76500 626.0
5.77500 599.0
5.78500 568.0
5.79500 609.0
5.80500 506.0
5.81500 660.0
5.82500 664.0
5.83500 634.0
5.84500 597.0
5.85500 683.0
5.86500 600.0
5.87500 753.0
5.88500 795.0
5.89500 721.0
5.90500 626.0
5.91500 660.0
5.92500 691.0
5.93500 623.0
5.94500 571.0
5.95500 666.0
5.96500 476.0
5.97500 487.0
5.98500 491.0
5.99500 654.0
6.00500 708.0
6.01500 767.0
6.02500 654.0
6.03500 498.0
6.04500 451.0
6.05500 449.0
6.06500 353.0
6.07500 465.0
6.08500 460.0
6.09500 370.0
6.10500 425.0
6.11500 438.0
6.12500 436.0
6.13500 489.0
6.14500 500.0
6.15500 439.0
6.16500 450.0
6.17500 465.0
6.18500 484.0
6.19500 585.0
6.20500 584.0
6.21500 430.0
6.22500 419.0
6.23500 467.0
6.24500 466.0
6.25500 470.0
6.26500 464.0
6.27500 538.0
6.28500 819.0
6.29500 646.0
6.30500 595.0
6.31500 603.0
6.32500 575.0
6.33500 591.0
6.34500 477.0
6.35500 474.0
6.36500 487.0
6.37500 498.0
6.38500 593.0
6.39500 664.0
6.40500 700.0
6.41500 594.0
6.42500 561.0
6.43500 721.0
6.44500 695.0
6.45500 799.0
6.46500 970.0
6.47500 649.0
6.48500 698.0
6.49500 748.0
6.50500 896.0
6.51500 865.0
6.52500 923.0
6.53500 714.0
6.54500 671.0
6.55500 760.0
6.56500 1035.0
6.57500 897.0
6.58500 932.0
6.59500 735.0
6.60500 1134.0
6.61500 1059.0
6.62500 1044.0
6.63500 724.0
6.64500 676.0
6.65500 536.0
6.66500 600.0
6.67500 582.0
6.68500 538.0
6.69500 590.0
6.70500 944.0
6.71500 989.0
6.72500 742.0
6.73500 725.0
6.74500 881.0
6.75500 945.0
6.76500 1216.0
6.77500 1189.0
6.78500 819.0
6.79500 999.0
6.80500 753.0
6.81500 649.0
6.82500 617.0
6.83500 610.0
6.84500 686.0
6.85500 629.0
6.86500 1080.0
6.87500 1141.0
6.88500 799.0
6.89500 1367.0
6.90500 1309.0
6.91500 1058.0
6.92500 1186.0
6.93500 826.0
6.94500 801.0
6.95500 1202.0
6.96500 1073.0
6.97500 948.0
6.98500 884.0
6.99500 889.0
7.00500 962.0
7.01500 802.0
7.02500 746.0
7.03500 512.0
7.04500 800.0
7.05500 674.0
7.06500 807.0
7.07500 866.0
7.08500 879.0
7.09500 1031.0
7.10500 959.0
7.11500 772.0
7.12500 935.0
7.13500 1028.0
7.14500 1125.0
7.15500 906.0
7.16500 662.0
7.17500 644.0
7.18500 621.0
7.19500 719.0
7.20500 708.0
7.21500 660.0
7.22500 667.0
7.23500 744.0
7.24500 571.0
7.25500 509.0
7.26500 480.0
7.27500 564.0
7.28500 593.0
7.29500 762.0
7.30500 938.0
7.31500 1277.0
7.32500 1311.0
7.33500 1341.0
7.34500 779.0
7.35500 1018.0
7.36500 896.0
7.37500 977.0
7.38500 1013.0
7.39500 922.0
7.40500 1253.0
7.41500 911.0
7.42500 874.0
7.43500 712.0
7.44500 793.0
7.45500 778.0
7.46500 1061.0
7.47500 1109.0
7.48500 1207.0
7.49500 802.0
7.50500 989.0
7.51500 1082.0
7.52500 1072.0
7.53500 1067.0
7.54500 1206.0
7.55500 988.0
7.56500 1042.0
7.57500 985.0
7.58500 1257.0
7.59500 1116.0
7.60500 1135.0
7.61500 1467.0
7.62500 1252.0
7.63500 870.0
7.64500 1235.0
7.65500 880.0
7.66500 648.0
7.67500 798.0
7.68500 747.0
7.69500 772.0
7.70500 607.0
7.71500 630.0
7.72500 776.0
7.73500 787.0
7.74500 858.0
7.75500 762.0
7.76500 853.0
7.77500 777.0
7.78500 1065.0
7.79500 1076.0
7.80500 1013.0
7.81500 941.0
7.82500 651.0
7.83500 503.0
7.84500 600.0
7.85500 615.0
7.86500 606.0
7.87500 589.0
7.88500 558.0
7.89500 481.0
7.90500 536.0
7.91500 593.0
7.92500 556.0
7.93500 599.0
7.94500 794.0
7.95500 641.0
7.96500 795.0
7.97500 967.0
7.98500 942.0
7.99500 850.0
