0.00500 424309948416.0
0.01500 486292127744.0
0.02500 374227828736.0
0.03500 215328735232.0
0.04500 99826073600.0
0.05500 35722362880.0
0.06500 20658571264.0
0.07500 20786829312.0
0.08500 22394880000.0
0.09500 25899673600.0
0.10500 28975073280.0
0.11500 31680681984.0
0.12500 35212103680.0
0.13500 37239607296.0
0.14500 41153843200.0
0.15500 44796739584.0
0.16500 47559389184.0
0.17500 51506782208.0
0.18500 53425385472.0
0.19500 57936625664.0
0.20500 62765420544.0
0.21500 65263996928.0
0.22500 69956927488.0
0.23500 71775731712.0
0.24500 76092456960.0
0.25500 82077646848.0
0.26500 84993810432.0
0.27500 90206969856.0
0.28500 93030916096.0
0.29500 97102454784.0
0.30500 104403533824.0
0.31500 107294121984.0
0.32500 112262324224.0
0.33500 115532447744.0
0.34500 119583563776.0
0.35500 127372697600.0
0.36500 130324930560.0
0.37500 135210352640.0
0.38500 140078596096.0
0.39500 142564589568.0
0.40500 151480107008.0
0.41500 154849869824.0
0.42500 158713298944.0
0.43500 164082892800.0
0.44500 166484000768.0
0.45500 174632763392.0
0.46500 179398688768.0
0.47500 181603221504.0
0.48500 188192800768.0
0.49500 190759174144.0
0.50500 199414546432.0
0.51500 203889803264.0
0.52500 205022330880.0
0.53500 210795823104.0
0.54500 214136307712.0
0.55500 221685071872.0
0.56500 227321380864.0
0.57500 227509239808.0
0.58500 232755986432.0
0.59500 233295691776.0
0.60500 238403371008.0
0.61500 243484147712.0
0.62500 242521702400.0
0.63500 246465495040.0
0.64500 246900883456.0
0.65500 247349559296.0
0.66500 248139628544.0
0.67500 240337764352.0
0.68500 231729217536.0
0.69500 214602629120.0
0.70500 188682010624.0
0.71500 163150888960.0
0.72500 135573512192.0
0.73500 116746584064.0
0.74500 101614870528.0
0.75500 88306450432.0
0.76500 79864250368.0
0.77500 71284596736.0
0.78500 64721657856.0
0.79500 59546439680.0
0.80500 54445424640.0
0.81500 50601144320.0
0.82500 46882836480.0
0.83500 43251032064.0
0.84500 40695132160.0
0.85500 37632081920.0
0.86500 35526991872.0
0.87500 33504690176.0
0.88500 31686248448.0
0.89500 29937004544.0
0.90500 28211548160.0
0.91500 26846976000.0
0.92500 25520666624.0
0.93500 24267345920.0
0.94500 23331188736.0
0.95500 22154700800.0
0.96500 20943880192.0
0.97500 20069384192.0
0.98500 19196510208.0
0.99500 18451277824.0
1.00500 17592528896.0
1.01500 16849939456.0
1.02500 16268568576.0
1.03500 15609609216.0
1.04500 15072390144.0
1.05500 14417052672.0
1.06500 13973686272.0
1.07500 13573449728.0
1.08500 13200468992.0
1.09500 12589199360.0
1.10500 12106758144.0
1.11500 11667098624.0
1.12500 11326996480.0
1.13500 10950394880.0
1.14500 10681323520.0
1.15500 10271884288.0
1.16500 9921476608.0
1.17500 9730231296.0
1.18500 9393598464.0
1.19500 9180872704.0
1.20500 8882922496.0
1.21500 8473889280.0
1.22500 8358470656.0
1.23500 8116726272.0
1.24500 7926250496.0
1.25500 7685540864.0
1.26500 7438789120.0
1.27500 7222161920.0
1.28500 7141510144.0
1.29500 6946097664.0
1.30500 6660188672.0
1.31500 6572208640.0
1.32500 6464356352.0
1.33500 6219073536.0
1.34500 6131247616.0
1.35500 6085516800.0
1.36500 5830444544.0
1.37500 5770434560.0
1.38500 5906676736.0
1.39500 5466960384.0
1.40500 5367358976.0
1.41500 5346829312.0
1.42500 5158870528.0
1.43500 5018755072.0
1.44500 4993666048.0
1.45500 4876793344.0
1.46500 4726650368.0
1.47500 4719070208.0
1.48500 4652502016.0
1.49500 4502568448.0
1.50500 4530482688.0
1.51500 4505952768.0
1.52500 4320357888.0
1.53500 4347405312.0
1.54500 4348649984.0
1.55500 4160453632.0
1.56500 4117995008.0
1.57500 4197472000.0
1.58500 4024687104.0
1.59500 3954244864.0
1.60500 4037972992.0
1.61500 3992997120.0
1.62500 3855049216.0
1.63500 3959950592.0
1.64500 4008394752.0
1.65500 3875159552.0
1.66500 3952944128.0
1.67500 4055831808.0
1.68500 3889787904.0
1.69500 3870782208.0
1.70500 4043049472.0
1.71500 3994899200.0
1.72500 3889606144.0
1.73500 4136525312.0
1.74500 4234643968.0
1.75500 4189374464.0
1.76500 4455942656.0
1.77500 4738411520.0
1.78500 4723251712.0
1.79500 4894819840.0
1.80500 5402028032.0
1.81500 5558268416.0
1.82500 5756407808.0
1.83500 6511331840.0
1.84500 7248970752.0
1.85500 7833781760.0
1.86500 9242882048.0
1.87500 11076637696.0
1.88500 13049235456.0
1.89500 16459379712.0
1.90500 22583566336.0
1.91500 32574799872.0
1.92500 55754993664.0
1.93500 100407533568.0
1.94500 149422768128.0
1.95500 176566272000.0
1.96500 162701115392.0
1.97500 114799886336.0
1.98500 59167948800.0
1.99500 26418853888.0
2.00500 14736931840.0
2.01500 10520733696.0
2.02500 6802807296.0
2.03500 4801847808.0
2.04500 3990843392.0
2.05500 3101425408.0
2.06500 2385071872.0
2.07500 2099889664.0
2.08500 1763466496.0
2.09500 1397884672.0
2.10500 1267586432.0
2.11500 1143567488.0
2.12500 944994432.0
2.13500 847267264.0
2.14500 807074368.0
2.15500 712186112.0
2.16500 633660352.0
2.17500 615591744.0
2.18500 560756544.0
2.19500 490523872.0
2.20500 483111840.0
2.21500 472343360.0
2.22500 419312256.0
2.23500 403383328.0
2.24500 413732224.0
2.25500 393328128.0
2.26500 352394016.0
2.27500 355232992.0
2.28500 350296288.0
2.29500 311194208.0
2.30500 302089984.0
2.31500 312956320.0
2.32500 287531584.0
2.33500 274735328.0
2.34500 281336256.0
2.35500 281420160.0
2.36500 260568512.0
2.37500 250009840.0
2.38500 262596352.0
2.39500 236528304.0
2.40500 219256832.0
2.41500 228892496.0
2.42500 221256688.0
2.43500 200069408.0
2.44500 201439936.0
2.45500 204334832.0
2.46500 188713584.0
2.47500 174672656.0
2.48500 178854160.0
2.49500 176896272.0
2.50500 158450048.0
2.51500 158254256.0
2.52500 163176976.0
2.53500 153709136.0
2.54500 144716784.0
2.55500 152604320.0
2.56500 155191552.0
2.57500 139863984.0
2.58500 136717360.0
2.59500 138647296.0
2.60500 128773880.0
2.61500 119431904.0
2.62500 123585448.0
2.63500 126018832.0
2.64500 113586168.0
2.65500 112942864.0
2.66500 115320312.0
2.67500 109852176.0
2.68500 96090936.0
2.69500 98887936.0
2.70500 101545088.0
2.71500 90986408.0
2.72500 87839784.0
2.73500 92566712.0
2.74500 87224448.0
2.75500 81350744.0
2.76500 86776928.0
2.77500 85196624.0
2.78500 78763520.0
2.79500 75491032.0
2.80500 82595408.0
2.81500 78987280.0
2.82500 72148616.0
2.83500 72666064.0
2.84500 74498096.0
2.85500 66890256.0
2.86500 66037168.0
2.87500 71057784.0
2.88500 68834168.0
2.89500 61743776.0
2.90500 62722724.0
2.91500 66051156.0
2.92500 62121368.0
2.93500 57310528.0
2.94500 59170536.0
2.95500 57730080.0
2.96500 51269008.0
2.97500 54849168.0
2.98500 54751276.0
2.99500 51730516.0
3.00500 47451104.0
3.01500 52639540.0
3.02500 52066156.0
3.03500 47674864.0
3.04500 46709900.0
3.05500 46500124.0
3.06500 46695916.0
3.07500 40094996.0
3.08500 43353500.0
3.09500 44374404.0
3.10500 41283720.0
3.11500 39535596.0
3.12500 41381616.0
3.13500 38668524.0
3.14500 37577696.0
3.15500 39199956.0
3.16500 39325820.0
3.17500 34291220.0
3.18500 34934528.0
3.19500 36305060.0
3.20500 33633924.0
3.21500 30599180.0
3.22500 31690010.0
3.23500 32501140.0
3.24500 30767000.0
3.25500 31074670.0
3.26500 31186550.0
3.27500 30753016.0
3.28500 28011956.0
3.29500 28361580.0
3.30500 29927900.0
3.31500 28235716.0
3.32500 26991050.0
3.33500 27746240.0
3.34500 27256764.0
3.35500 23354950.0
3.36500 24655556.0
3.37500 24082170.0
3.38500 21830584.0
3.39500 20320204.0
3.40500 21816600.0
3.41500 23760516.0
3.42500 22362016.0
3.43500 20865620.0
3.44500 21928480.0
3.45500 20739756.0
3.46500 18879750.0
3.47500 20977500.0
3.48500 20320204.0
3.49500 18432230.0
3.50500 17760950.0
3.51500 18879750.0
3.52500 19453136.0
3.53500 17383356.0
3.54500 17103656.0
3.55500 16879896.0
3.56500 14796130.0
3.57500 14362595.0
3.58500 15705155.0
3.59500 15355530.0
3.60500 14530415.0
3.61500 15998840.0
3.62500 14908010.0
3.63500 16110720.0
3.64500 17830876.0
3.65500 18152530.0
3.66500 23019310.0
3.67500 27033004.0
3.68500 39815296.0
3.69500 67701384.0
3.70500 128256432.0
3.71500 206810176.0
3.72500 263519360.0
3.73500 244248032.0
3.74500 174518816.0
3.75500 116201368.0
3.76500 92636640.0
3.77500 81308792.0
3.78500 63743632.0
3.79500 54415636.0
3.80500 46625992.0
3.81500 41675300.0
3.82500 36193180.0
3.83500 31969710.0
3.84500 33577984.0
3.85500 28515416.0
3.86500 24641570.0
3.87500 26865184.0
3.88500 25620520.0
3.89500 22683670.0
3.90500 21355096.0
3.91500 22222164.0
3.92500 20711784.0
3.93500 19425164.0
3.94500 20460056.0
3.95500 17579144.0
3.96500 16614180.0
3.97500 15313575.0
3.98500 16544255.0
3.99500 16642150.0
4.00500 15369515.0
4.01500 14446505.0
4.02500 14880040.0
4.03500 13509510.0
4.04500 13048005.0
4.05500 12446650.0
4.06500 12950110.0
4.07500 12180935.0
4.08500 12236875.0
4.09500 12027100.0
4.10500 11397775.0
4.11500 11104090.0
4.12500 11943190.0
4.13500 12278830.0
4.14500 13257780.0
4.15500 13901090.0
4.16500 13299735.0
4.17500 12922140.0
4.18500 10376870.0
4.19500 9887395.0
4.20500 11593565.0
4.21500 9202130.0
4.22500 10292960.0
4.23500 9803485.0
4.24500 10754465.0
4.25500 8684685.0
4.26500 8726640.0
4.27500 10978225.0
4.28500 9691605.0
4.29500 9803485.0
4.30500 9943335.0
4.31500 11579580.0
4.32500 10069200.0
4.33500 9565740.0
4.34500 9369950.0
4.35500 9663635.0
4.36500 9188145.0
4.37500 8335060.0
4.38500 8866490.0
4.39500 7062425.0
4.40500 6992500.0
4.41500 8502880.0
4.42500 7915510.0
4.43500 6894605.0
4.44500 6279265.0
4.45500 7342125.0
4.46500 6167385.0
4.47500 8111300.0
4.48500 6349190.0
4.49500 6265280.0
4.50500 6335205.0
4.51500 6768740.0
4.52500 6097460.0
4.53500 5817760.0
4.54500 5705880.0
4.55500 6265280.0
4.56500 5803775.0
4.57500 6642875.0
4.58500 7076410.0
4.59500 7537915.0
4.60500 7705735.0
4.61500 6852650.0
4.62500 9160175.0
4.63500 9929350.0
4.64500 9174160.0
4.65500 8950400.0
4.66500 10181080.0
4.67500 10278975.0
4.68500 9677620.0
4.69500 7607840.0
4.70500 6628890.0
4.71500 8153255.0
4.72500 7467990.0
4.73500 7384080.0
4.74500 7328140.0
4.75500 7230245.0
4.76500 6321220.0
4.77500 5943625.0
4.78500 5398210.0
4.79500 5048585.0
4.80500 5929640.0
4.81500 6489040.0
4.82500 6279265.0
4.83500 6838665.0
4.84500 6754755.0
4.85500 6461070.0
4.86500 6083475.0
4.87500 7146335.0
4.88500 7216260.0
4.89500 6321220.0
4.90500 7719720.0
4.91500 9258070.0
4.92500 10866345.0
4.93500 10292960.0
4.94500 8544835.0
4.95500 9747545.0
4.96500 11495670.0
4.97500 11257925.0
4.98500 8782580.0
4.99500 6628890.0
5.00500 5398210.0
5.01500 4796855.0
5.02500 5090540.0
5.03500 5006630.0
5.04500 5090540.0
5.05500 4083620.0
5.06500 3650085.0
5.07500 4978660.0
5.08500 5370240.0
5.09500 8055360.0
5.10500 7467990.0
5.11500 5496105.0
5.12500 6796710.0
5.13500 4489185.0
5.14500 5188435.0
5.15500 6195355.0
5.16500 4489185.0
5.17500 6670845.0
5.18500 5230390.0
5.19500 4531140.0
5.20500 3482265.0
5.21500 4293395.0
5.22500 3915800.0
5.23500 4223470.0
5.24500 4335350.0
5.25500 4097605.0
5.26500 4307380.0
5.27500 4027680.0
5.28500 5580015.0
5.29500 5356255.0
5.30500 5286330.0
5.31500 4740915.0
5.32500 4517155.0
5.33500 4335350.0
5.34500 5328285.0
5.35500 4293395.0
5.36500 5328285.0
5.37500 5146480.0
5.38500 5971595.0
5.39500 6069490.0
5.40500 6195355.0
5.41500 6572950.0
5.42500 6363175.0
5.43500 6041520.0
5.44500 6097460.0
5.45500 5789790.0
5.46500 7649795.0
5.47500 9286040.0
5.48500 11271910.0
5.49500 16879896.0
5.50500 28221730.0
5.51500 44108688.0
5.52500 51520740.0
5.53500 53660444.0
5.54500 48052460.0
5.55500 37717544.0
5.56500 27844136.0
5.57500 19005616.0
5.58500 15257635.0
5.59500 10418825.0
5.60500 9062280.0
5.61500 8726640.0
5.62500 7817615.0
5.63500 6055505.0
5.64500 6069490.0
5.65500 5803775.0
5.66500 7412050.0
5.67500 5230390.0
5.68500 3817905.0
5.69500 4349335.0
5.70500 3272490.0
5.71500 3034745.0
5.72500 3062715.0
5.73500 3426325.0
5.74500 3034745.0
5.75500 3622115.0
5.76500 3216550.0
5.77500 3957755.0
5.78500 3971740.0
5.79500 3020760.0
5.80500 3426325.0
5.81500 2769030.0
5.82500 3370385.0
5.83500 4237455.0
5.84500 3608130.0
5.85500 3622115.0
5.86500 4335350.0
5.87500 3496250.0
5.88500 3552190.0
5.89500 3831890.0
5.90500 3356400.0
5.91500 3328430.0
5.92500 2391435.0
5.93500 3258505.0
5.94500 3048730.0
5.95500 3468280.0
5.96500 3468280.0
5.97500 3901815.0
5.98500 3761965.0
5.99500 4377305.0
6.00500 4069635.0
6.01500 2755045.0
6.02500 4726930.0
6.03500 4083620.0
6.04500 4307380.0
6.05500 4684975.0
6.06500 4083620.0
6.07500 3971740.0
6.08500 3580160.0
6.09500 3328430.0
6.10500 3300460.0
6.11500 4629035.0
6.12500 5328285.0
6.13500 4307380.0
6.14500 5901670.0
6.15500 4992645.0
6.16500 4069635.0
6.17500 4964675.0
6.18500 4643020.0
6.19500 5300315.0
6.20500 3006775.0
6.21500 3510235.0
6.22500 3831890.0
6.23500 3370385.0
6.24500 3803920.0
6.25500 3258505.0
6.26500 3985725.0
6.27500 3146625.0
6.28500 3650085.0
6.29500 2769030.0
6.30500 3048730.0
6.31500 3468280.0
6.32500 4447230.0
6.33500 3817905.0
6.34500 3384370.0
6.35500 3412340.0
6.36500 3356400.0
6.37500 2978805.0
6.38500 2950835.0
6.39500 3118655.0
6.40500 2405420.0
6.41500 3384370.0
6.42500 3733995.0
6.43500 4055650.0
6.44500 3580160.0
6.45500 3929785.0
6.46500 3580160.0
6.47500 5426180.0
6.48500 5510090.0
6.49500 4768885.0
6.50500 5440165.0
6.51500 5873700.0
6.52500 4880765.0
6.53500 3943770.0
6.54500 3104670.0
6.55500 2992790.0
6.56500 4824825.0
6.57500 3929785.0
6.58500 2950835.0
6.59500 3286475.0
6.60500 2852940.0
6.61500 3034745.0
6.62500 2755045.0
6.63500 2587225.0
6.64500 2713090.0
6.65500 2685120.0
6.66500 2643165.0
6.67500 3076700.0
6.68500 3160610.0
6.69500 2769030.0
6.70500 2587225.0
6.71500 2363465.0
6.72500 2433390.0
6.73500 2797000.0
6.74500 2922865.0
6.75500 2111735.0
6.76500 2237600.0
6.77500 2950835.0
6.78500 2433390.0
6.79500 1887975.0
6.80500 2223615.0
6.81500 2013840.0
6.82500 2125720.0
6.83500 2741060.0
6.84500 3090685.0
6.85500 2167675.0
6.86500 2139705.0
6.87500 2391435.0
6.88500 2405420.0
6.89500 2307525.0
6.90500 2936850.0
6.91500 2824970.0
6.92500 3440310.0
6.93500 3412340.0
6.94500 3706025.0
6.95500 3761965.0
6.96500 2922865.0
6.97500 3104670.0
6.98500 2713090.0
6.99500 3104670.0
7.00500 2517300.0
7.01500 2769030.0
7.02500 2195645.0
7.03500 2866925.0
7.04500 2866925.0
7.05500 3034745.0
7.06500 3034745.0
7.07500 2824970.0
7.08500 3076700.0
7.09500 2922865.0
7.10500 3272490.0
7.11500 3216550.0
7.12500 2713090.0
7.13500 3831890.0
7.14500 3328430.0
7.15500 3230535.0
7.16500 3076700.0
7.17500 3258505.0
7.18500 2978805.0
7.19500 3412340.0
7.20500 3286475.0
7.21500 3538205.0
7.22500 3090685.0
7.23500 3789935.0
7.24500 4153545.0
7.25500 3552190.0
7.26500 3062715.0
7.27500 2894895.0
7.28500 3034745.0
7.29500 3272490.0
7.30500 3286475.0
7.31500 3733995.0
7.32500 3929785.0
7.33500 4475200.0
7.34500 5244375.0
7.35500 4754900.0
7.36500 4307380.0
7.37500 4419260.0
7.38500 4321365.0
7.39500 3664070.0
7.40500 4195500.0
7.41500 3594145.0
7.42500 3775950.0
7.43500 3160610.0
7.44500 3706025.0
7.45500 3426325.0
7.46500 3636100.0
7.47500 3650085.0
7.48500 3160610.0
7.49500 3845875.0
7.50500 3580160.0
7.51500 4950690.0
7.52500 5286330.0
7.53500 5691895.0
7.54500 6125430.0
7.55500 4698960.0
7.56500 5146480.0
7.57500 4615050.0
7.58500 4321365.0
7.59500 5174450.0
7.60500 5356255.0
7.61500 5160465.0
7.62500 4573095.0
7.63500 4531140.0
7.64500 6558965.0
7.65500 9369950.0
7.66500 7831600.0
7.67500 8936415.0
7.68500 7104380.0
7.69500 6307235.0
7.70500 5314300.0
7.71500 6670845.0
7.72500 7048440.0
7.73500 5594000.0
7.74500 5552045.0
7.75500 5985580.0
7.76500 4936705.0
7.77500 4657005.0
7.78500 4936705.0
7.79500 4992645.0
7.80500 4545125.0
7.81500 4894750.0
7.82500 5328285.0
7.83500 4349335.0
7.84500 3594145.0
7.85500 4041665.0
7.86500 4824825.0
7.87500 5174450.0
7.88500 5146480.0
7.89500 4279410.0
7.90500 4307380.0
7.91500 3468280.0
7.92500 3104670.0
7.93500 3566175.0
7.94500 4167530.0
7.95500 4013695.0
7.96500 2755045.0
7.97500 3370385.0
7.98500 4097605.0
7.99500 3090685.0
8.00500 3664070.0
8.01500 3384370.0
8.02500 4055650.0
8.03500 2349480.0
8.04500 2489330.0
8.05500 2629180.0
8.06500 2377450.0
8.07500 2797000.0
8.08500 2950835.0
8.09500 2810985.0
8.10500 2531285.0
8.11500 2671135.0
8.12500 2629180.0
8.13500 2307525.0
8.14500 2601210.0
8.15500 3006775.0
8.16500 3510235.0
8.17500 2908880.0
8.18500 3230535.0
8.19500 3132640.0
8.20500 3132640.0
8.21500 2769030.0
8.22500 2741060.0
8.23500 2894895.0
8.24500 2559255.0
8.25500 3034745.0
8.26500 3650085.0
8.27500 3538205.0
8.28500 4265425.0
8.29500 4125575.0
8.30500 3761965.0
8.31500 3664070.0
8.32500 4950690.0
8.33500 5062570.0
8.34500 5510090.0
8.35500 3985725.0
8.36500 4894750.0
8.37500 4111590.0
8.38500 2992790.0
8.39500 3216550.0
8.40500 3538205.0
8.41500 3160610.0
8.42500 4013695.0
8.43500 3342415.0
8.44500 3258505.0
8.45500 3552190.0
8.46500 3188580.0
8.47500 3510235.0
8.48500 3188580.0
8.49500 3076700.0
8.50500 3426325.0
8.51500 3230535.0
8.52500 3314445.0
8.53500 3664070.0
8.54500 3943770.0
8.55500 4223470.0
8.56500 3873845.0
8.57500 2894895.0
8.58500 3314445.0
8.59500 2559255.0
8.60500 2685120.0
8.61500 3594145.0
8.62500 2838955.0
8.63500 2797000.0
8.64500 3706025.0
8.65500 4251440.0
8.66500 4181515.0
8.67500 2797000.0
8.68500 2265570.0
8.69500 3146625.0
8.70500 2824970.0
8.71500 2517300.0
8.72500 2391435.0
8.73500 2461360.0
8.74500 1915945.0
8.75500 2069780.0
8.76500 2587225.0
8.77500 2810985.0
8.78500 1901960.0
8.79500 2433390.0
8.80500 2013840.0
8.81500 2643165.0
8.82500 1832035.0
8.83500 2013840.0
8.84500 2433390.0
8.85500 1832035.0
8.86500 1985870.0
8.87500 1790080.0
8.88500 2391435.0
8.89500 1818050.0
8.90500 2629180.0
8.91500 2964820.0
8.92500 2405420.0
8.93500 1929930.0
8.94500 2181660.0
8.95500 2097750.0
8.96500 2783015.0
8.97500 2866925.0
8.98500 2824970.0
8.99500 2139705.0
9.00500 1650230.0
9.01500 1887975.0
9.02500 2461360.0
9.03500 2195645.0
9.04500 2069780.0
9.05500 2978805.0
9.06500 2797000.0
9.07500 2447375.0
9.08500 2391435.0
9.09500 2671135.0
9.10500 2783015.0
9.11500 3006775.0
9.12500 3174595.0
9.13500 3132640.0
9.14500 2950835.0
9.15500 3160610.0
9.16500 3678055.0
9.17500 3985725.0
9.18500 4013695.0
9.19500 6209340.0
9.20500 5985580.0
9.21500 4922720.0
9.22500 5566030.0
9.23500 6251295.0
9.24500 4377305.0
9.25500 4461215.0
9.26500 3342415.0
9.27500 3454295.0
9.28500 3496250.0
9.29500 3664070.0
9.30500 4670990.0
9.31500 4824825.0
9.32500 5272345.0
9.33500 6600920.0
9.34500 4111590.0
9.35500 4083620.0
9.36500 2950835.0
9.37500 2950835.0
9.38500 3887830.0
9.39500 4307380.0
9.40500 3076700.0
9.41500 4223470.0
9.42500 4349335.0
9.43500 4125575.0
9.44500 3440310.0
9.45500 3090685.0
9.46500 2615195.0
9.47500 2489330.0
9.48500 2685120.0
9.49500 3761965.0
9.50500 2992790.0
9.51500 3845875.0
9.52500 3775950.0
9.53500 3188580.0
9.54500 4139560.0
9.55500 4573095.0
9.56500 3901815.0
9.57500 2769030.0
9.58500 3104670.0
9.59500 2880910.0
9.60500 3286475.0
9.61500 3286475.0
9.62500 2783015.0
9.63500 4475200.0
9.64500 3132640.0
9.65500 2866925.0
9.66500 2335495.0
9.67500 3384370.0
9.68500 2629180.0
9.69500 3286475.0
9.70500 2922865.0
9.71500 3775950.0
9.72500 3356400.0
9.73500 3650085.0
9.74500 3873845.0
9.75500 2922865.0
9.76500 3608130.0
9.77500 4111590.0
9.78500 3929785.0
9.79500 2349480.0
9.80500 2587225.0
9.81500 2377450.0
9.82500 3342415.0
9.83500 2517300.0
9.84500 2573240.0
9.85500 2531285.0
9.86500 2866925.0
9.87500 2992790.0
9.88500 3342415.0
