0.800000 685087.0
0.810000 615754.0
0.820000 472794.0
0.830000 433096.0
0.840000 345744.0
0.850000 329476.0
0.860000 269465.0
0.870000 260814.0
0.880000 219399.0
0.890000 212244.0
0.900000 181646.0
0.910000 177494.0
0.920000 152412.0
0.930000 151010.0
0.940000 131116.0
0.950000 128236.0
0.960000 113569.0
0.970000 110091.0
0.980000 97282.0
0.990000 94679.0
1.000000 84042.0
1.010000 83117.0
1.020000 74147.0
1.030000 72900.0
1.040000 65076.0
1.050000 64465.0
1.060000 57648.0
1.070000 56692.0
1.080000 51484.0
1.090000 50131.0
1.100000 45497.0
1.110000 45326.0
1.120000 41331.0
1.130000 40844.0
1.140000 38259.0
1.150000 37288.0
1.160000 34633.0
1.170000 34336.0
1.180000 31506.0
1.190000 31329.0
1.200000 29722.0
1.210000 29138.0
1.220000 27756.0
1.230000 26994.0
1.240000 25408.0
1.250000 25664.0
1.260000 23747.0
1.270000 23134.0
1.280000 22052.0
1.290000 21462.0
1.300000 20249.0
1.310000 20079.0
1.320000 19377.0
1.330000 18252.0
1.340000 17716.0
1.350000 17345.0
1.360000 16564.0
1.370000 16333.0
1.380000 15851.0
1.390000 15500.0
1.400000 15178.0
1.410000 14738.0
1.420000 14161.0
1.430000 13830.0
1.440000 13202.0
1.450000 12432.0
1.460000 12188.0
1.470000 11946.0
1.480000 11535.0
1.490000 11109.0
1.500000 10983.0
1.510000 10816.0
1.520000 10363.0
1.530000 9940.0
1.540000 9940.0
1.550000 9506.0
1.560000 9409.0
1.570000 9235.0
1.580000 9293.0
1.590000 9254.0
1.600000 8930.0
1.610000 8686.0
1.620000 8798.0
1.630000 8575.0
1.640000 8705.0
1.650000 8263.0
1.660000 8427.0
1.670000 8372.0
1.680000 8046.0
1.690000 7639.0
1.700000 7586.0
1.710000 7569.0
1.720000 7430.0
1.730000 7208.0
1.740000 7310.0
1.750000 7208.0
1.760000 7379.0
1.770000 7276.0
1.780000 7413.0
1.790000 7242.0
1.800000 7344.0
1.810000 7123.0
1.820000 6956.0
1.830000 6972.0
1.840000 7022.0
1.850000 7208.0
1.860000 7225.0
1.870000 7517.0
1.880000 7850.0
1.890000 8082.0
1.900000 8336.0
1.910000 8612.0
1.920000 8911.0
1.930000 8892.0
1.940000 9390.0
1.950000 9821.0
1.960000 10486.0
1.970000 10712.0
1.980000 11556.0
1.990000 11903.0
2.000000 12860.0
2.010000 14113.0
2.020000 16307.0
2.030000 18523.0
2.040000 22680.0
2.050000 29002.0
2.060000 37636.0
2.070000 51166.0
2.080000 85089.0
2.090000 148842.0
2.100000 251302.0
2.110000 363730.0
2.120000 447829.0
2.130000 468267.0
2.140000 421591.0
2.150000 331200.0
2.160000 229824.0
2.170000 142129.0
2.180000 92355.0
2.190000 52167.0
2.200000 35872.0
2.210000 19377.0
2.220000 15450.0
2.230000 9683.0
2.240000 7815.0
2.250000 5198.0
2.260000 4516.0
2.270000 3249.0
2.280000 2767.0
2.290000 2247.0
2.300000 1989.0
2.310000 1529.0
2.320000 1436.0
2.330000 1362.0
2.340000 1063.0
2.350000 992.0
2.360000 894.0
2.370000 812.0
2.380000 784.0
2.390000 681.0
2.400000 640.0
2.410000 635.0
2.420000 480.0
2.430000 437.0
2.440000 441.0
2.450000 376.0
2.460000 353.0
2.470000 369.0
2.480000 357.0
2.490000 339.0
2.500000 353.0
2.510000 299.0
2.520000 313.0
2.530000 240.0
2.540000 262.0
2.550000 253.0
2.560000 225.0
2.570000 202.0
2.580000 225.0
2.590000 231.0
2.600000 237.0
2.610000 207.0
2.620000 216.0
2.630000 169.0
2.640000 161.0
2.650000 161.0
2.660000 185.0
2.670000 154.0
2.680000 188.0
2.690000 146.0
2.700000 177.0
2.710000 139.0
2.720000 128.0
2.730000 142.0
2.740000 125.0
2.750000 142.0
2.760000 142.0
2.770000 130.0
2.780000 137.0
2.790000 137.0
2.800000 135.0
2.810000 130.0
2.820000 112.0
2.830000 110.0
2.840000 130.0
2.850000 125.0
2.860000 117.0
2.870000 114.0
2.880000 135.0
2.890000 117.0
2.900000 110.0
2.910000 128.0
2.920000 125.0
2.930000 110.0
2.940000 88.0
2.950000 112.0
2.960000 108.0
2.970000 88.0
2.980000 86.0
2.990000 88.0
3.000000 98.0
3.010000 81.0
3.020000 94.0
3.030000 88.0
3.040000 79.0
3.050000 61.0
3.060000 77.0
3.070000 79.0
3.080000 71.0
3.090000 86.0
3.100000 72.0
3.110000 53.0
3.120000 67.0
3.130000 58.0
3.140000 62.0
3.150000 61.0
3.160000 61.0
3.170000 52.0
3.180000 62.0
3.190000 45.0
3.200000 50.0
3.210000 55.0
3.220000 53.0
3.230000 46.0
3.240000 46.0
3.250000 34.0
3.260000 34.0
3.270000 40.0
3.280000 32.0
3.290000 48.0
3.300000 40.0
3.310000 38.0
3.320000 44.0
3.330000 50.0
3.340000 30.0
3.350000 32.0
3.360000 35.0
3.370000 42.0
3.380000 34.0
3.390000 22.0
3.400000 20.0
3.410000 32.0
3.420000 23.0
3.430000 20.0
3.440000 21.0
3.450000 21.0
3.460000 24.0
3.470000 23.0
3.480000 17.0
3.490000 19.0
3.500000 28.0
3.510000 28.0
3.520000 21.0
3.530000 18.0
3.540000 17.0
3.550000 20.0
3.560000 17.0
3.570000 9.0
3.580000 13.0
3.590000 9.0
3.600000 12.0
3.610000 13.0
3.620000 18.0
3.630000 14.0
3.640000 18.0
3.650000 8.0
3.660000 10.0
3.670000 10.0
3.680000 9.0
3.690000 5.0
3.700000 5.0
3.710000 5.0
3.720000 7.0
3.730000 7.0
3.740000 4.0
3.750000 11.0
3.760000 9.0
3.770000 9.0
3.780000 8.0
3.790000 11.0
3.800000 9.0
3.810000 11.0
3.820000 17.0
3.830000 29.0
3.840000 32.0
3.850000 58.0
3.860000 72.0
3.870000 83.0
3.880000 96.0
3.890000 159.0
3.900000 259.0
3.910000 467.0
3.920000 1043.0
3.930000 2007.0
3.940000 3295.0
3.950000 4556.0
3.960000 5476.0
3.970000 5388.0
3.980000 4651.0
3.990000 3770.0
4.000000 2663.0
4.010000 1832.0
4.020000 1225.0
4.030000 824.0
4.040000 529.0
4.050000 365.0
4.060000 306.0
4.070000 228.0
4.080000 196.0
4.090000 174.0
4.100000 154.0
4.110000 137.0
4.120000 125.0
4.130000 117.0
4.140000 86.0
4.150000 85.0
4.160000 86.0
4.170000 76.0
4.180000 67.0
4.190000 58.0
4.200000 50.0
4.210000 48.0
4.220000 50.0
4.230000 53.0
4.240000 37.0
4.250000 38.0
4.260000 38.0
4.270000 34.0
4.280000 38.0
4.290000 38.0
4.300000 34.0
4.310000 32.0
4.320000 35.0
4.330000 28.0
4.340000 22.0
4.350000 32.0
4.360000 32.0
4.370000 28.0
4.380000 32.0
4.390000 26.0
4.400000 15.0
4.410000 18.0
4.420000 18.0
4.430000 24.0
4.440000 25.0
4.450000 16.0
4.460000 16.0
4.470000 22.0
4.480000 9.0
4.490000 10.0
4.500000 14.0
4.510000 16.0
4.520000 15.0
4.530000 10.0
4.540000 14.0
4.550000 15.0
4.560000 19.0
4.570000 15.0
4.580000 27.0
4.590000 13.0
4.600000 17.0
4.610000 18.0
4.620000 16.0
4.630000 13.0
4.640000 7.0
4.650000 18.0
4.660000 8.0
4.670000 17.0
4.680000 12.0
4.690000 11.0
4.700000 11.0
4.710000 11.0
4.720000 7.0
4.730000 13.0
4.740000 12.0
4.750000 8.0
4.760000 15.0
4.770000 14.0
4.780000 10.0
4.790000 10.0
4.800000 9.0
4.810000 8.0
4.820000 8.0
4.830000 10.0
4.840000 6.0
4.850000 8.0
4.860000 11.0
4.870000 12.0
4.880000 3.0
4.890000 15.0
4.900000 9.0
4.910000 9.0
4.920000 10.0
4.930000 7.0
4.940000 6.0
4.950000 10.0
4.960000 6.0
4.970000 9.0
4.980000 9.0
4.990000 2.0
5.000000 6.0
5.010000 7.0
5.020000 6.0
5.030000 6.0
5.040000 8.0
5.050000 5.0
5.060000 7.0
5.070000 5.0
5.080000 17.0
5.090000 6.0
5.100000 11.0
5.110000 8.0
5.120000 8.0
5.130000 2.0
5.140000 7.0
5.150000 12.0
5.160000 4.0
5.170000 1.0
5.180000 6.0
5.190000 7.0
5.200000 11.0
5.210000 11.0
5.220000 5.0
5.230000 7.0
5.240000 4.0
5.250000 8.0
5.260000 9.0
5.270000 5.0
5.280000 7.0
5.290000 7.0
5.300000 7.0
5.310000 8.0
5.320000 8.0
5.330000 5.0
5.340000 10.0
5.350000 6.0
5.360000 6.0
5.370000 7.0
5.380000 11.0
5.390000 6.0
5.400000 9.0
5.410000 5.0
5.420000 7.0
5.430000 7.0
5.440000 10.0
5.450000 4.0
5.460000 8.0
5.470000 6.0
5.480000 12.0
5.490000 10.0
5.500000 7.0
5.510000 10.0
5.520000 8.0
5.530000 13.0
5.540000 9.0
5.550000 2.0
5.560000 9.0
5.570000 5.0
5.580000 8.0
5.590000 3.0
5.600000 9.0
5.610000 13.0
5.620000 11.0
5.630000 7.0
5.640000 5.0
5.650000 9.0
5.660000 16.0
5.670000 16.0
5.680000 16.0
5.690000 20.0
5.700000 24.0
5.710000 18.0
5.720000 34.0
5.730000 34.0
5.740000 36.0
5.750000 48.0
5.760000 55.0
5.770000 77.0
5.780000 161.0
5.790000 276.0
5.800000 605.0
5.810000 930.0
5.820000 1282.0
5.830000 1384.0
5.840000 1354.0
5.850000 1332.0
5.860000 1102.0
5.870000 876.0
5.880000 729.0
5.890000 515.0
5.900000 384.0
5.910000 250.0
5.920000 164.0
5.930000 119.0
5.940000 71.0
5.950000 66.0
5.960000 44.0
5.970000 37.0
5.980000 31.0
5.990000 24.0
6.000000 16.0
6.010000 19.0
6.020000 12.0
6.030000 14.0
6.040000 9.0
6.050000 3.0
6.060000 8.0
6.070000 10.0
6.080000 7.0
6.090000 4.0
6.100000 11.0
6.110000 9.0
6.120000 2.0
6.130000 8.0
6.140000 10.0
6.150000 6.0
6.160000 9.0
6.170000 6.0
6.180000 2.0
6.190000 8.0
6.200000 3.0
6.210000 5.0
6.220000 4.0
6.230000 2.0
6.240000 5.0
6.250000 3.0
6.260000 3.0
6.270000 6.0
6.280000 3.0
6.290000 2.0
6.300000 2.0
6.310000 4.0
6.320000 3.0
6.330000 2.0
6.340000 4.0
6.350000 7.0
6.360000 3.0
6.370000 5.0
6.380000 5.0
6.390000 5.0
6.400000 3.0
6.410000 6.0
6.420000 3.0
6.430000 7.0
6.440000 3.0
6.450000 6.0
6.460000 0.0
6.470000 3.0
6.480000 5.0
6.490000 2.0
6.500000 3.0
6.510000 1.0
6.520000 7.0
6.530000 1.0
6.540000 1.0
6.550000 3.0
6.560000 4.0
6.570000 1.0
6.580000 2.0
6.590000 1.0
6.600000 2.0
6.610000 4.0
6.620000 3.0
6.630000 4.0
6.640000 4.0
6.650000 4.0
6.660000 2.0
6.670000 2.0
6.680000 7.0
6.690000 1.0
6.700000 4.0
6.710000 0.0
6.720000 1.0
6.730000 0.0
6.740000 0.0
6.750000 2.0
6.760000 1.0
6.770000 2.0
6.780000 2.0
6.790000 2.0
6.800000 1.0
6.810000 4.0
6.820000 4.0
6.830000 3.0
6.840000 2.0
6.850000 2.0
6.860000 1.0
6.870000 5.0
6.880000 4.0
6.890000 4.0
6.900000 2.0
6.910000 1.0
6.920000 4.0
6.930000 3.0
6.940000 1.0
6.950000 2.0
6.960000 5.0
6.970000 5.0
6.980000 1.0
6.990000 2.0
7.000000 3.0
7.010000 2.0
7.020000 4.0
7.030000 3.0
7.040000 0.0
7.050000 1.0
7.060000 2.0
7.070000 1.0
7.080000 4.0
7.090000 1.0
7.100000 1.0
7.110000 1.0
7.120000 3.0
7.130000 3.0
7.140000 6.0
7.150000 3.0
7.160000 3.0
7.170000 1.0
7.180000 3.0
7.190000 4.0
7.200000 1.0
7.210000 3.0
7.220000 3.0
7.230000 1.0
7.240000 1.0
7.250000 3.0
7.260000 1.0
7.270000 1.0
7.280000 3.0
7.290000 0.0
7.300000 2.0
7.310000 2.0
7.320000 0.0
7.330000 0.0
7.340000 0.0
7.350000 0.0
7.360000 3.0
7.370000 1.0
7.380000 1.0
7.390000 2.0
7.400000 1.0
7.410000 2.0
7.420000 2.0
7.430000 0.0
7.440000 2.0
7.450000 1.0
7.460000 2.0
7.470000 2.0
7.480000 4.0
7.490000 2.0
7.500000 1.0
7.510000 5.0
7.520000 4.0
7.530000 3.0
7.540000 4.0
7.550000 5.0
7.560000 4.0
7.570000 5.0
7.580000 9.0
7.590000 8.0
7.600000 9.0
7.610000 4.0
7.620000 3.0
7.630000 8.0
7.640000 13.0
7.650000 20.0
7.660000 32.0
7.670000 53.0
7.680000 104.0
7.690000 146.0
7.700000 225.0
7.710000 262.0
7.720000 289.0
7.730000 243.0
7.740000 210.0
7.750000 207.0
7.760000 146.0
7.770000 130.0
7.780000 125.0
7.790000 96.0
7.800000 79.0
7.810000 62.0
7.820000 36.0
7.830000 26.0
7.840000 22.0
7.850000 12.0
7.860000 13.0
7.870000 11.0
7.880000 13.0
7.890000 9.0
7.900000 5.0
7.910000 5.0
7.920000 3.0
7.930000 4.0
7.940000 6.0
7.950000 5.0
7.960000 5.0
7.970000 8.0
7.980000 10.0
7.990000 4.0
8.000000 2.0
8.010000 3.0
8.020000 2.0
8.030000 6.0
8.040000 4.0
8.050000 1.0
8.060000 3.0
8.070000 3.0
8.080000 7.0
8.090000 1.0
8.100000 4.0
8.110000 1.0
8.120000 1.0
8.130000 4.0
8.140000 6.0
8.150000 3.0
8.160000 2.0
8.170000 2.0
8.180000 3.0
8.190000 2.0
8.200000 2.0
8.210000 3.0
8.220000 2.0
8.230000 3.0
8.240000 0.0
8.250000 1.0
8.260000 1.0
8.270000 1.0
8.280000 7.0
8.290000 2.0
8.300000 1.0
8.310000 0.0
8.320000 1.0
8.330000 4.0
8.340000 0.0
8.350000 4.0
8.360000 3.0
8.370000 4.0
8.380000 1.0
8.390000 0.0
8.400000 0.0
8.410000 2.0
8.420000 2.0
8.430000 4.0
8.440000 1.0
8.450000 1.0
8.460000 1.0
8.470000 3.0
8.480000 4.0
8.490000 3.0
8.500000 1.0
8.510000 1.0
8.520000 2.0
8.530000 0.0
8.540000 3.0
8.550000 0.0
8.560000 1.0
8.570000 1.0
8.580000 3.0
8.590000 1.0
8.600000 1.0
8.610000 0.0
8.620000 1.0
8.630000 1.0
8.640000 0.0
8.650000 0.0
8.660000 0.0
8.670000 1.0
8.680000 2.0
8.690000 1.0
8.700000 1.0
8.710000 0.0
8.720000 1.0
8.730000 2.0
8.740000 0.0
8.750000 0.0
8.760000 1.0
8.770000 0.0
8.780000 4.0
8.790000 1.0
8.800000 0.0
8.810000 2.0
8.820000 0.0
8.830000 1.0
8.840000 1.0
8.850000 3.0
8.860000 4.0
8.870000 0.0
8.880000 1.0
8.890000 1.0
8.900000 1.0
8.910000 0.0
8.920000 2.0
8.930000 1.0
8.940000 1.0
8.950000 0.0
8.960000 0.0
8.970000 3.0
8.980000 1.0
8.990000 1.0
9.000000 0.0
9.010000 1.0
9.020000 0.0
9.030000 0.0
9.040000 2.0
9.050000 1.0
9.060000 1.0
9.070000 0.0
9.080000 3.0
9.090000 1.0
9.100000 1.0
9.110000 0.0
9.120000 2.0
9.130000 0.0
9.140000 1.0
9.150000 0.0
9.160000 1.0
9.170000 0.0
9.180000 0.0
9.190000 0.0
9.200000 0.0
9.210000 0.0
9.220000 0.0
9.230000 0.0
9.240000 3.0
9.250000 2.0
9.260000 1.0
9.270000 1.0
9.280000 1.0
9.290000 0.0
9.300000 1.0
9.310000 1.0
9.320000 1.0
9.330000 2.0
9.340000 0.0
9.350000 3.0
9.360000 0.0
9.370000 1.0
9.380000 3.0
9.390000 1.0
9.400000 0.0
9.410000 0.0
9.420000 4.0
9.430000 2.0
9.440000 0.0
9.450000 0.0
9.460000 3.0
9.470000 2.0
9.480000 1.0
9.490000 1.0
9.500000 1.0
9.510000 3.0
9.520000 2.0
9.530000 0.0
9.540000 1.0
9.550000 4.0
9.560000 4.0
9.570000 5.0
9.580000 11.0
9.590000 28.0
9.600000 23.0
9.610000 27.0
9.620000 23.0
9.630000 21.0
9.640000 20.0
9.650000 18.0
9.660000 24.0
9.670000 6.0
9.680000 12.0
9.690000 10.0
9.700000 9.0
9.710000 8.0
9.720000 4.0
9.730000 3.0
9.740000 4.0
9.750000 0.0
9.760000 3.0
9.770000 3.0
9.780000 0.0
9.790000 5.0
9.800000 0.0
9.810000 3.0
9.820000 2.0
9.830000 0.0
9.840000 2.0
9.850000 0.0
9.860000 1.0
9.870000 2.0
9.880000 0.0
9.890000 3.0
9.900000 2.0
9.910000 1.0
9.920000 2.0
9.930000 4.0
9.940000 0.0
9.950000 0.0
9.960000 1.0
9.970000 0.0
9.980000 0.0
9.990000 1.0
10.000000 1.0
10.010000 0.0
10.020000 1.0
10.030000 2.0
10.040000 1.0
10.050000 1.0
10.060000 2.0
10.070000 3.0
10.080000 0.0
10.090000 0.0
10.100000 0.0
10.110000 0.0
10.120000 1.0
10.130000 2.0
10.140000 1.0
10.150000 0.0
10.160000 1.0
10.170000 1.0
10.180000 2.0
10.190000 1.0
10.200000 0.0
10.210000 2.0
10.220000 2.0
10.230000 3.0
10.240000 3.0
10.250000 2.0
10.260000 1.0
10.270000 0.0
10.280000 0.0
10.290000 0.0
10.300000 0.0
10.310000 2.0
10.320000 0.0
10.330000 0.0
10.340000 0.0
10.350000 0.0
10.360000 0.0
10.370000 2.0
10.380000 1.0
10.390000 0.0
10.400000 2.0
10.410000 0.0
10.420000 0.0
10.430000 0.0
10.440000 1.0
10.450000 0.0
10.460000 1.0
10.470000 0.0
10.480000 0.0
10.490000 0.0
10.500000 1.0
10.510000 0.0
10.520000 0.0
10.530000 1.0
10.540000 0.0
10.550000 1.0
10.560000 2.0
10.570000 0.0
10.580000 2.0
10.590000 1.0
10.600000 1.0
10.610000 1.0
10.620000 0.0
10.630000 1.0
10.640000 0.0
10.650000 2.0
10.660000 0.0
10.670000 1.0
10.680000 4.0
10.690000 0.0
10.700000 1.0
10.710000 1.0
10.720000 2.0
10.730000 0.0
10.740000 3.0
10.750000 1.0
10.760000 1.0
10.770000 2.0
10.780000 0.0
10.790000 0.0
10.800000 1.0
10.810000 2.0
10.820000 0.0
10.830000 0.0
10.840000 1.0
10.850000 3.0
10.860000 1.0
10.870000 0.0
10.880000 0.0
10.890000 2.0
10.900000 1.0
10.910000 2.0
10.920000 0.0
10.930000 0.0
10.940000 2.0
10.950000 0.0
10.960000 3.0
10.970000 1.0
10.980000 0.0
10.990000 1.0
11.000000 0.0
11.010000 2.0
11.020000 2.0
11.030000 0.0
11.040000 0.0
11.050000 0.0
11.060000 0.0
11.070000 0.0
11.080000 0.0
11.090000 0.0
11.100000 3.0
11.110000 1.0
11.120000 3.0
11.130000 0.0
11.140000 1.0
11.150000 1.0
11.160000 1.0
11.170000 1.0
11.180000 0.0
11.190000 0.0
11.200000 0.0
11.210000 1.0
11.220000 2.0
11.230000 1.0
11.240000 0.0
11.250000 0.0
11.260000 2.0
11.270000 0.0
11.280000 0.0
11.290000 2.0
11.300000 3.0
11.310000 1.0
11.320000 3.0
11.330000 2.0
11.340000 0.0
11.350000 0.0
11.360000 0.0
11.370000 0.0
11.380000 0.0
11.390000 0.0
11.400000 1.0
11.410000 1.0
11.420000 0.0
11.430000 1.0
11.440000 3.0
11.450000 3.0
11.460000 4.0
11.470000 10.0
11.480000 5.0
11.490000 14.0
11.500000 7.0
11.510000 14.0
11.520000 13.0
11.530000 10.0
11.540000 10.0
11.550000 13.0
11.560000 5.0
11.570000 7.0
11.580000 7.0
11.590000 4.0
11.600000 3.0
11.610000 3.0
11.620000 2.0
11.630000 6.0
11.640000 2.0
11.650000 3.0
11.660000 2.0
11.670000 0.0
11.680000 2.0
11.690000 1.0
11.700000 1.0
11.710000 2.0
11.720000 1.0
11.730000 0.0
11.740000 1.0
11.750000 1.0
11.760000 2.0
11.770000 1.0
11.780000 2.0
11.790000 2.0
11.800000 1.0
11.810000 4.0
11.820000 1.0
11.830000 0.0
11.840000 0.0
11.850000 0.0
11.860000 1.0
11.870000 2.0
11.880000 3.0
11.890000 2.0
11.900000 2.0
11.910000 0.0
11.920000 0.0
11.930000 0.0
11.940000 0.0
11.950000 0.0
11.960000 1.0
11.970000 0.0
11.980000 1.0
11.990000 4.0
