0.01000 8630400.0
0.02000 8123042.0
0.03000 6140623.0
0.04000 3894350.0
0.05000 1915169.0
0.06000 654211.0
0.07000 162451.0
0.08000 54550.0
0.09000 42822.0
0.10000 41255.0
0.11000 45083.0
0.12000 52489.0
0.13000 50873.0
0.14000 57690.0
0.15000 63946.0
0.16000 68169.0
0.17000 81419.0
0.18000 79667.0
0.19000 86578.0
0.20000 96108.0
0.21000 99277.0
0.22000 116510.0
0.23000 114838.0
0.24000 121025.0
0.25000 140021.0
0.26000 140739.0
0.27000 163524.0
0.28000 164111.0
0.29000 167245.0
0.30000 192598.0
0.31000 191681.0
0.32000 214819.0
0.33000 219868.0
0.34000 216292.0
0.35000 252273.0
0.36000 248732.0
0.37000 272302.0
0.38000 287033.0
0.39000 272299.0
0.40000 311866.0
0.41000 302512.0
0.42000 309272.0
0.43000 304176.0
0.44000 229532.0
0.45000 153583.0
0.46000 76174.0
0.47000 36474.0
0.48000 19623.0
0.49000 10237.0
0.50000 6659.0
0.51000 4748.0
0.52000 3973.0
0.53000 4519.0
0.54000 4574.0
0.55000 5516.0
0.56000 6556.0
0.57000 7334.0
0.58000 8525.0
0.59000 9150.0
0.60000 9712.0
0.61000 10997.0
0.62000 11255.0
0.63000 12624.0
0.64000 12980.0
0.65000 13176.0
0.66000 14332.0
0.67000 13645.0
0.68000 14556.0
0.69000 14900.0
0.70000 14544.0
0.71000 15350.0
0.72000 14409.0
0.73000 14662.0
0.74000 14848.0
0.75000 14010.0
0.76000 14636.0
0.77000 13377.0
0.78000 13069.0
0.79000 13187.0
0.80000 12069.0
0.81000 12349.0
0.82000 11367.0
0.83000 10855.0
0.84000 10993.0
0.85000 9825.0
0.86000 9512.0
0.87000 8881.0
0.88000 7988.0
0.89000 8112.0
0.90000 7005.0
0.91000 6627.0
0.92000 6237.0
0.93000 5561.0
0.94000 5444.0
0.95000 4653.0
0.96000 4251.0
0.97000 3825.0
0.98000 3435.0
0.99000 3292.0
1.00000 2932.0
1.01000 2572.0
1.02000 2346.0
1.03000 2028.0
1.04000 1996.0
1.05000 1697.0
1.06000 1522.0
1.07000 1423.0
1.08000 1285.0
1.09000 1230.0
1.10000 1123.0
1.11000 1063.0
1.12000 1083.0
1.13000 1008.0
1.14000 1011.0
1.15000 1043.0
1.16000 1015.0
1.17000 1089.0
1.18000 1139.0
1.19000 1245.0
1.20000 1392.0
1.21000 1336.0
1.22000 1418.0
1.23000 1454.0
1.24000 1530.0
1.25000 1767.0
1.26000 1650.0
1.27000 1723.0
1.28000 1856.0
1.29000 1945.0
1.30000 1993.0
1.31000 1965.0
1.32000 1987.0
1.33000 2164.0
1.34000 2076.0
1.35000 2157.0
1.36000 2120.0
1.37000 2095.0
1.38000 2154.0
1.39000 2035.0
1.40000 2208.0
1.41000 2131.0
1.42000 2036.0
1.43000 2089.0
1.44000 2007.0
1.45000 1936.0
1.46000 1829.0
1.47000 1754.0
1.48000 1821.0
1.49000 1733.0
1.50000 1657.0
1.51000 1605.0
1.52000 1506.0
1.53000 1443.0
1.54000 1318.0
1.55000 1326.0
1.56000 1166.0
1.57000 1115.0
1.58000 1061.0
1.59000 944.0
1.60000 900.0
1.61000 824.0
1.62000 743.0
1.63000 703.0
1.64000 633.0
1.65000 590.0
1.66000 572.0
1.67000 500.0
1.68000 460.0
1.69000 372.0
1.70000 368.0
1.71000 352.0
1.72000 322.0
1.73000 300.0
1.74000 281.0
1.75000 256.0
1.76000 235.0
1.77000 237.0
1.78000 229.0
1.79000 213.0
1.80000 217.0
1.81000 232.0
1.82000 225.0
1.83000 250.0
1.84000 268.0
1.85000 221.0
1.86000 264.0
1.87000 293.0
1.88000 280.0
1.89000 318.0
1.90000 299.0
1.91000 330.0
1.92000 337.0
1.93000 305.0
1.94000 304.0
1.95000 321.0
1.96000 313.0
1.97000 374.0
1.98000 328.0
1.99000 388.0
2.00000 355.0
2.01000 368.0
2.02000 405.0
2.03000 352.0
2.04000 380.0
2.05000 399.0
2.06000 400.0
2.07000 345.0
2.08000 392.0
2.09000 374.0
2.10000 348.0
2.11000 367.0
2.12000 342.0
2.13000 334.0
2.14000 347.0
2.15000 325.0
2.16000 313.0
2.17000 339.0
2.18000 279.0
2.19000 281.0
2.20000 268.0
2.21000 219.0
2.22000 250.0
2.23000 235.0
2.24000 234.0
2.25000 232.0
2.26000 214.0
2.27000 198.0
2.28000 185.0
2.29000 160.0
2.30000 156.0
2.31000 147.0
2.32000 144.0
2.33000 115.0
2.34000 114.0
2.35000 108.0
2.36000 98.0
2.37000 89.0
2.38000 79.0
2.39000 70.0
2.40000 67.0
2.41000 91.0
2.42000 75.0
2.43000 85.0
2.44000 57.0
2.45000 70.0
2.46000 64.0
2.47000 50.0
2.48000 58.0
2.49000 58.0
2.50000 56.0
2.51000 67.0
2.52000 65.0
2.53000 62.0
2.54000 74.0
2.55000 78.0
2.56000 74.0
2.57000 60.0
2.58000 64.0
2.59000 83.0
2.60000 87.0
2.61000 88.0
2.62000 87.0
2.63000 82.0
2.64000 96.0
2.65000 82.0
2.66000 80.0
2.67000 62.0
2.68000 75.0
2.69000 92.0
2.70000 84.0
2.71000 97.0
2.72000 92.0
2.73000 99.0
2.74000 100.0
2.75000 104.0
2.76000 92.0
2.77000 92.0
2.78000 77.0
2.79000 100.0
2.80000 88.0
2.81000 72.0
2.82000 87.0
2.83000 75.0
2.84000 92.0
2.85000 74.0
2.86000 78.0
2.87000 95.0
2.88000 81.0
2.89000 71.0
2.90000 57.0
2.91000 67.0
2.92000 53.0
2.93000 71.0
2.94000 57.0
2.95000 72.0
2.96000 51.0
2.97000 53.0
2.98000 60.0
2.99000 55.0
3.00000 52.0
3.01000 53.0
3.02000 58.0
3.03000 62.0
3.04000 58.0
3.05000 45.0
3.06000 37.0
3.07000 48.0
3.08000 44.0
3.09000 49.0
3.10000 33.0
3.11000 44.0
3.12000 43.0
3.13000 43.0
3.14000 33.0
3.15000 36.0
3.16000 20.0
3.17000 27.0
3.18000 35.0
3.19000 31.0
3.20000 43.0
3.21000 36.0
3.22000 43.0
3.23000 45.0
3.24000 32.0
3.25000 40.0
3.26000 36.0
3.27000 43.0
3.28000 36.0
3.29000 35.0
3.30000 32.0
3.31000 31.0
3.32000 39.0
3.33000 36.0
3.34000 43.0
3.35000 49.0
3.36000 53.0
3.37000 43.0
3.38000 40.0
3.39000 46.0
3.40000 29.0
3.41000 50.0
3.42000 47.0
3.43000 40.0
3.44000 41.0
3.45000 48.0
3.46000 40.0
3.47000 43.0
3.48000 66.0
3.49000 55.0
3.50000 57.0
3.51000 48.0
3.52000 46.0
3.53000 48.0
3.54000 38.0
3.55000 45.0
3.56000 31.0
3.57000 40.0
3.58000 34.0
3.59000 45.0
3.60000 36.0
3.61000 40.0
3.62000 51.0
3.63000 57.0
3.64000 35.0
3.65000 56.0
3.66000 51.0
3.67000 39.0
3.68000 36.0
3.69000 47.0
3.70000 40.0
3.71000 48.0
3.72000 48.0
3.73000 67.0
3.74000 33.0
3.75000 36.0
3.76000 50.0
3.77000 49.0
3.78000 37.0
3.79000 30.0
3.80000 26.0
