0.00500 30174126.0
0.01500 33775508.0
0.02500 29565172.0
0.03500 23349140.0
0.04500 15768150.0
0.05500 8889106.0
0.06500 5074774.0
0.07500 3892317.0
0.08500 4042817.0
0.09500 4446816.0
0.10500 4871811.0
0.11500 5371569.0
0.12500 5764406.0
0.13500 6202436.0
0.14500 6630583.0
0.15500 7058140.0
0.16500 7590046.0
0.17500 7999905.0
0.18500 8407218.0
0.19500 8853842.0
0.20500 9215800.0
0.21500 9700716.0
0.22500 10055748.0
0.23500 10387908.0
0.24500 10743290.0
0.25500 11117938.0
0.26500 11520055.0
0.27500 11923086.0
0.28500 12152445.0
0.29500 12539615.0
0.30500 12830363.0
0.31500 13233406.0
0.32500 13644974.0
0.33500 13809036.0
0.34500 14208733.0
0.35500 14456407.0
0.36500 14824015.0
0.37500 15146568.0
0.38500 15151026.0
0.39500 15526202.0
0.40500 15947609.0
0.41500 16266650.0
0.42500 16567915.0
0.43500 16486982.0
0.44500 16780980.0
0.45500 17171860.0
0.46500 17308272.0
0.47500 17592838.0
0.48500 17530612.0
0.49500 17755032.0
0.50500 18027888.0
0.51500 18176338.0
0.52500 18493772.0
0.53500 18365048.0
0.54500 18487262.0
0.55500 18782768.0
0.56500 18781196.0
0.57500 19049622.0
0.58500 18903744.0
0.59500 18939428.0
0.60500 19225188.0
0.61500 19116818.0
0.62500 19179784.0
0.63500 18948248.0
0.64500 18398876.0
0.65500 18284802.0
0.66500 17822648.0
0.67500 17281222.0
0.68500 16265351.0
0.69500 14755301.0
0.70500 13062819.0
0.71500 10760707.0
0.72500 8560236.0
0.73500 6717286.0
0.74500 5241520.0
0.75500 4301566.0
0.76500 3555829.0
0.77500 2985217.0
0.78500 2523977.0
0.79500 2119319.0
0.80500 1852303.0
0.81500 1604478.0
0.82500 1395138.0
0.83500 1239827.0
0.84500 1083447.0
0.85500 972411.0
0.86500 874632.0
0.87500 780296.0
0.88500 711226.0
0.89500 634241.0
0.90500 575583.0
0.91500 528436.0
0.92500 470364.0
0.93500 438140.0
0.94500 399118.0
0.95500 362806.0
0.96500 336754.0
0.97500 309356.0
0.98500 282532.0
0.99500 262638.0
1.00500 242456.0
1.01500 223658.0
1.02500 208522.0
1.03500 196871.0
1.04500 181774.0
1.05500 169741.0
1.06500 163376.0
1.07500 151945.0
1.08500 140450.0
1.09500 136609.0
1.10500 129146.0
1.11500 120031.0
1.12500 111920.0
1.13500 109096.0
1.14500 102158.0
1.15500 94923.0
1.16500 91754.0
1.17500 87074.0
1.18500 81786.0
1.19500 76536.0
1.20500 74336.0
1.21500 70846.0
1.22500 65990.0
1.23500 63493.0
1.24500 63021.0
1.25500 60154.0
1.26500 55153.0
1.27500 52672.0
1.28500 52596.0
1.29500 50297.0
1.30500 47316.0
1.31500 45993.0
1.32500 44941.0
1.33500 43097.0
1.34500 40709.0
1.35500 39824.0
1.36500 39726.0
1.37500 38019.0
1.38500 35805.0
1.39500 35129.0
1.40500 35098.0
1.41500 33559.0
1.42500 32239.0
1.43500 30645.0
1.44500 30891.0
1.45500 29952.0
1.46500 28405.0
1.47500 27809.0
1.48500 27316.0
1.49500 26703.0
1.50500 25494.0
1.51500 24720.0
1.52500 24950.0
1.53500 24528.0
1.54500 22909.0
1.55500 22719.0
1.56500 22387.0
1.57500 22309.0
1.58500 21403.0
1.59500 20722.0
1.60500 21271.0
1.61500 21303.0
1.62500 20086.0
1.63500 19355.0
1.64500 19330.0
1.65500 19562.0
1.66500 18217.0
1.67500 17895.0
1.68500 17764.0
1.69500 17815.0
1.70500 17110.0
1.71500 15952.0
1.72500 16133.0
1.73500 16034.0
1.74500 15295.0
1.75500 14233.0
1.76500 13839.0
1.77500 14138.0
1.78500 14057.0
1.79500 13209.0
1.80500 13359.0
1.81500 13572.0
1.82500 13747.0
1.83500 13176.0
1.84500 12535.0
1.85500 12490.0
1.86500 12549.0
1.87500 12104.0
1.88500 11441.0
1.89500 12039.0
1.90500 11840.0
1.91500 11466.0
1.92500 10759.0
1.93500 10451.0
1.94500 10492.0
1.95500 10168.0
1.96500 9723.0
1.97500 9613.0
1.98500 9830.0
1.99500 9643.0
2.00500 9417.0
2.01500 9428.0
2.02500 9757.0
2.03500 9985.0
2.04500 9518.0
2.05500 9319.0
2.06500 9282.0
2.07500 9636.0
2.08500 9520.0
2.09500 9188.0
2.10500 9415.0
2.11500 9875.0
2.12500 9791.0
2.13500 9472.0
2.14500 9401.0
2.15500 9888.0
2.16500 9883.0
2.17500 9740.0
2.18500 9737.0
2.19500 10027.0
2.20500 10557.0
2.21500 10835.0
2.22500 10967.0
2.23500 11706.0
2.24500 12282.0
2.25500 12108.0
2.26500 11998.0
2.27500 12920.0
2.28500 14281.0
2.29500 14938.0
2.30500 16050.0
2.31500 19227.0
2.32500 23677.0
2.33500 27271.0
2.34500 28552.0
2.35500 33479.0
2.36500 58234.0
2.37500 106980.0
2.38500 177887.0
2.39500 243759.0
2.40500 279181.0
2.41500 277912.0
2.42500 244482.0
2.43500 196717.0
2.44500 150695.0
2.45500 115156.0
2.46500 86028.0
2.47500 66374.0
2.48500 52470.0
2.49500 42522.0
2.50500 35877.0
2.51500 30693.0
2.52500 27096.0
2.53500 23659.0
2.54500 21196.0
2.55500 19230.0
2.56500 17336.0
2.57500 15716.0
2.58500 14357.0
2.59500 13141.0
2.60500 12140.0
2.61500 11331.0
2.62500 10708.0
2.63500 9862.0
2.64500 9276.0
2.65500 8765.0
2.66500 8053.0
2.67500 7754.0
2.68500 7112.0
2.69500 6576.0
2.70500 6326.0
2.71500 6061.0
2.72500 5796.0
2.73500 5661.0
2.74500 5407.0
2.75500 5126.0
2.76500 5129.0
2.77500 4719.0
2.78500 4463.0
2.79500 4437.0
2.80500 4292.0
2.81500 4238.0
2.82500 3851.0
2.83500 3934.0
2.84500 3791.0
2.85500 3801.0
2.86500 3725.0
2.87500 3509.0
2.88500 3258.0
2.89500 3181.0
2.90500 3206.0
2.91500 2939.0
2.92500 2777.0
2.93500 2869.0
2.94500 2830.0
2.95500 2922.0
2.96500 2740.0
2.97500 2735.0
2.98500 2633.0
2.99500 2547.0
3.00500 2453.0
3.01500 2247.0
3.02500 2298.0
3.03500 2256.0
3.04500 2156.0
3.05500 2132.0
3.06500 1996.0
3.07500 2076.0
3.08500 2011.0
3.09500 2017.0
3.10500 2024.0
3.11500 1846.0
3.12500 1774.0
3.13500 1840.0
3.14500 1868.0
3.15500 1806.0
3.16500 1834.0
3.17500 1796.0
3.18500 1734.0
3.19500 1506.0
3.20500 1577.0
3.21500 1433.0
3.22500 1496.0
3.23500 1512.0
3.24500 1566.0
3.25500 1577.0
3.26500 1663.0
3.27500 1486.0
3.28500 1442.0
3.29500 1435.0
3.30500 1524.0
3.31500 1413.0
3.32500 1263.0
3.33500 1227.0
3.34500 1146.0
3.35500 1168.0
3.36500 1004.0
3.37500 939.0
3.38500 999.0
3.39500 942.0
3.40500 913.0
3.41500 957.0
3.42500 889.0
3.43500 1064.0
3.44500 1149.0
3.45500 1122.0
3.46500 966.0
3.47500 910.0
3.48500 1023.0
3.49500 930.0
3.50500 958.0
3.51500 861.0
3.52500 924.0
3.53500 944.0
3.54500 933.0
3.55500 873.0
3.56500 913.0
3.57500 876.0
3.58500 828.0
3.59500 782.0
3.60500 833.0
3.61500 830.0
3.62500 824.0
3.63500 949.0
3.64500 1005.0
3.65500 935.0
3.66500 858.0
3.67500 859.0
3.68500 777.0
3.69500 801.0
3.70500 707.0
3.71500 716.0
3.72500 757.0
3.73500 639.0
3.74500 602.0
3.75500 618.0
3.76500 629.0
3.77500 638.0
3.78500 710.0
3.79500 850.0
3.80500 866.0
3.81500 837.0
3.82500 1012.0
3.83500 966.0
3.84500 900.0
3.85500 711.0
3.86500 830.0
3.87500 888.0
3.88500 819.0
3.89500 856.0
3.90500 712.0
3.91500 726.0
3.92500 730.0
3.93500 742.0
3.94500 665.0
3.95500 731.0
3.96500 643.0
3.97500 514.0
3.98500 446.0
3.99500 424.0
4.00500 507.0
4.01500 582.0
4.02500 585.0
4.03500 520.0
4.04500 456.0
4.05500 515.0
4.06500 489.0
4.07500 463.0
4.08500 666.0
4.09500 528.0
4.10500 557.0
4.11500 506.0
4.12500 580.0
4.13500 633.0
4.14500 544.0
4.15500 551.0
4.16500 528.0
4.17500 452.0
4.18500 465.0
4.19500 374.0
4.20500 469.0
4.21500 437.0
4.22500 496.0
4.23500 424.0
4.24500 470.0
4.25500 445.0
4.26500 482.0
4.27500 507.0
4.28500 538.0
4.29500 482.0
4.30500 350.0
4.31500 386.0
4.32500 396.0
4.33500 417.0
4.34500 360.0
4.35500 390.0
4.36500 565.0
4.37500 568.0
4.38500 387.0
4.39500 358.0
4.40500 402.0
4.41500 365.0
4.42500 456.0
4.43500 408.0
4.44500 435.0
4.45500 388.0
4.46500 474.0
4.47500 448.0
4.48500 447.0
4.49500 435.0
4.50500 298.0
4.51500 366.0
4.52500 392.0
4.53500 344.0
4.54500 272.0
4.55500 389.0
4.56500 358.0
4.57500 372.0
4.58500 315.0
4.59500 454.0
4.60500 646.0
4.61500 891.0
4.62500 1297.0
4.63500 1612.0
4.64500 1982.0
4.65500 2280.0
4.66500 2484.0
4.67500 2366.0
4.68500 2350.0
4.69500 2012.0
4.70500 1780.0
4.71500 1628.0
4.72500 1414.0
4.73500 1270.0
4.74500 1133.0
4.75500 983.0
4.76500 944.0
4.77500 858.0
4.78500 865.0
4.79500 813.0
4.80500 713.0
4.81500 675.0
4.82500 660.0
4.83500 646.0
4.84500 672.0
4.85500 583.0
4.86500 600.0
4.87500 640.0
4.88500 532.0
4.89500 550.0
4.90500 517.0
4.91500 478.0
4.92500 511.0
4.93500 485.0
4.94500 417.0
4.95500 443.0
4.96500 392.0
4.97500 367.0
4.98500 405.0
4.99500 333.0
5.00500 433.0
5.01500 442.0
5.02500 454.0
5.03500 352.0
5.04500 371.0
5.05500 381.0
5.06500 418.0
5.07500 398.0
5.08500 366.0
5.09500 307.0
5.10500 357.0
5.11500 400.0
5.12500 398.0
5.13500 371.0
5.14500 339.0
5.15500 355.0
5.16500 338.0
5.17500 304.0
5.18500 315.0
5.19500 248.0
5.20500 227.0
5.21500 236.0
5.22500 220.0
5.23500 229.0
5.24500 296.0
5.25500 232.0
5.26500 260.0
5.27500 286.0
5.28500 275.0
5.29500 258.0
5.30500 308.0
5.31500 274.0
5.32500 244.0
5.33500 258.0
5.34500 162.0
5.35500 180.0
5.36500 176.0
5.37500 196.0
5.38500 147.0
5.39500 170.0
5.40500 182.0
5.41500 208.0
5.42500 253.0
5.43500 323.0
5.44500 299.0
5.45500 274.0
5.46500 226.0
5.47500 262.0
5.48500 219.0
5.49500 268.0
5.50500 265.0
5.51500 290.0
5.52500 302.0
5.53500 439.0
5.54500 324.0
5.55500 397.0
5.56500 381.0
5.57500 305.0
5.58500 377.0
5.59500 296.0
5.60500 300.0
5.61500 264.0
5.62500 295.0
5.63500 213.0
