0.00500 28997654.0
0.01500 32976076.0
0.02500 28976714.0
0.03500 22677688.0
0.04500 15410850.0
0.05500 8451362.0
0.06500 3905600.0
0.07500 2319159.0
0.08500 2265325.0
0.09500 2399760.0
0.10500 2694474.0
0.11500 2936119.0
0.12500 3159936.0
0.13500 3522536.0
0.14500 3683623.0
0.15500 4022932.0
0.16500 4306622.0
0.17500 4499547.0
0.18500 4892662.0
0.19500 5032925.0
0.20500 5324652.0
0.21500 5665883.0
0.22500 5800439.0
0.23500 6232806.0
0.24500 6437125.0
0.25500 6719540.0
0.26500 7107702.0
0.27500 7218240.0
0.28500 7650433.0
0.29500 7888491.0
0.30500 8142275.0
0.31500 8551308.0
0.32500 8702312.0
0.33500 9095403.0
0.34500 9399305.0
0.35500 9555695.0
0.36500 10048859.0
0.37500 10200502.0
0.38500 10528126.0
0.39500 10859798.0
0.40500 10975344.0
0.41500 11419856.0
0.42500 11594820.0
0.43500 11811483.0
0.44500 12318380.0
0.45500 12442101.0
0.46500 12885101.0
0.47500 13123817.0
0.48500 13254207.0
0.49500 13753118.0
0.50500 13853081.0
0.51500 14187985.0
0.52500 14473510.0
0.53500 14476399.0
0.54500 14936833.0
0.55500 15033567.0
0.56500 15289191.0
0.57500 15566588.0
0.58500 15518997.0
0.59500 15949831.0
0.60500 15944071.0
0.61500 16041493.0
0.62500 16298738.0
0.63500 15958989.0
0.64500 15913324.0
0.65500 15720789.0
0.66500 15041057.0
0.67500 14332302.0
0.68500 12793403.0
0.69500 11235942.0
0.70500 9590629.0
0.71500 7971816.0
0.72500 6846291.0
0.73500 5821770.0
0.74500 5065198.0
0.75500 4499520.0
0.76500 3992930.0
0.77500 3615054.0
0.78500 3256939.0
0.79500 2954826.0
0.80500 2741806.0
0.81500 2505214.0
0.82500 2317625.0
0.83500 2140166.0
0.84500 1992852.0
0.85500 1893649.0
0.86500 1751459.0
0.87500 1626539.0
0.88500 1520442.0
0.89500 1404016.0
0.90500 1337514.0
0.91500 1254869.0
0.92500 1186640.0
0.93500 1139244.0
0.94500 1071196.0
0.95500 1028275.0
0.96500 973993.0
0.97500 920533.0
0.98500 895065.0
0.99500 857815.0
1.00500 830298.0
1.01500 794928.0
1.02500 755680.0
1.03500 733368.0
1.04500 713239.0
1.05500 690922.0
1.06500 679360.0
1.07500 658653.0
1.08500 638210.0
1.09500 615236.0
1.10500 582966.0
1.11500 547429.0
1.12500 511259.0
1.13500 485696.0
1.14500 458856.0
1.15500 448477.0
1.16500 440793.0
1.17500 426238.0
1.18500 408609.0
1.19500 383222.0
1.20500 354207.0
1.21500 339065.0
1.22500 320587.0
1.23500 305553.0
1.24500 298873.0
1.25500 290765.0
1.26500 283349.0
1.27500 282716.0
1.28500 285645.0
1.29500 280058.0
1.30500 273292.0
1.31500 265038.0
1.32500 257169.0
1.33500 254959.0
1.34500 258038.0
1.35500 253837.0
1.36500 245575.0
1.37500 234372.0
1.38500 221687.0
1.39500 217822.0
1.40500 218883.0
1.41500 217880.0
1.42500 213598.0
1.43500 210159.0
1.44500 207216.0
1.45500 201795.0
1.46500 194963.0
1.47500 186737.0
1.48500 176369.0
1.49500 168247.0
1.50500 162635.0
1.51500 159875.0
1.52500 159482.0
1.53500 161324.0
1.54500 163980.0
1.55500 163188.0
1.56500 163891.0
1.57500 160864.0
1.58500 155028.0
1.59500 149453.0
1.60500 143485.0
1.61500 140262.0
1.62500 138469.0
1.63500 137692.0
1.64500 136310.0
1.65500 137176.0
1.66500 139001.0
1.67500 140907.0
1.68500 144859.0
1.69500 145252.0
1.70500 138020.0
1.71500 131612.0
1.72500 129862.0
1.73500 128513.0
1.74500 128909.0
1.75500 134386.0
1.76500 138981.0
1.77500 142876.0
1.78500 148666.0
1.79500 152779.0
1.80500 156597.0
1.81500 164648.0
1.82500 180804.0
1.83500 195632.0
1.84500 215295.0
1.85500 238518.0
1.86500 261720.0
1.87500 286659.0
1.88500 329007.0
1.89500 383984.0
1.90500 442223.0
1.91500 530344.0
1.92500 688927.0
1.93500 995109.0
1.94500 1746992.0
1.95500 3253333.0
1.96500 5303476.0
1.97500 7090153.0
1.98500 7518003.0
1.99500 6398282.0
2.00500 4406498.0
2.01500 2573557.0
2.02500 1495253.0
2.03500 1037772.0
2.04500 777710.0
2.05500 576136.0
2.06500 455249.0
2.07500 369935.0
2.08500 303613.0
2.09500 249774.0
2.10500 214153.0
2.11500 186369.0
2.12500 161108.0
2.13500 144708.0
2.14500 131454.0
2.15500 112646.0
2.16500 100266.0
2.17500 90024.0
2.18500 81540.0
2.19500 73956.0
2.20500 68298.0
2.21500 64409.0
2.22500 56394.0
2.23500 51386.0
2.24500 48278.0
2.25500 43907.0
2.26500 41840.0
2.27500 39843.0
2.28500 37828.0
2.29500 35114.0
2.30500 32566.0
2.31500 32001.0
2.32500 30025.0
2.33500 28426.0
2.34500 27534.0
2.35500 26906.0
2.36500 25542.0
2.37500 24524.0
2.38500 22979.0
2.39500 22746.0
2.40500 22184.0
2.41500 22106.0
2.42500 21364.0
2.43500 20158.0
2.44500 19193.0
2.45500 18718.0
2.46500 17798.0
2.47500 16747.0
2.48500 15961.0
2.49500 15651.0
2.50500 15476.0
2.51500 15136.0
2.52500 14996.0
2.53500 14653.0
2.54500 14158.0
2.55500 13883.0
2.56500 13679.0
2.57500 13371.0
2.58500 12642.0
2.59500 12473.0
2.60500 12011.0
2.61500 11356.0
2.62500 11225.0
2.63500 11292.0
2.64500 11167.0
2.65500 10783.0
2.66500 10545.0
2.67500 10280.0
2.68500 9868.0
2.69500 9581.0
2.70500 9823.0
2.71500 9932.0
2.72500 9083.0
2.73500 8693.0
2.74500 8366.0
2.75500 8000.0
2.76500 7453.0
2.77500 7312.0
2.78500 7176.0
2.79500 6684.0
2.80500 6376.0
2.81500 6330.0
2.82500 6216.0
2.83500 6384.0
2.84500 6466.0
2.85500 6560.0
2.86500 6094.0
2.87500 5751.0
2.88500 5389.0
2.89500 5147.0
2.90500 4995.0
2.91500 5014.0
2.92500 5098.0
2.93500 4967.0
2.94500 4815.0
2.95500 5159.0
2.96500 5193.0
2.97500 4794.0
2.98500 4760.0
2.99500 4738.0
3.00500 4573.0
3.01500 4337.0
3.02500 4132.0
3.03500 4108.0
3.04500 3981.0
3.05500 4158.0
3.06500 4091.0
3.07500 4164.0
3.08500 3930.0
3.09500 3623.0
3.10500 3498.0
3.11500 3464.0
3.12500 3404.0
3.13500 3588.0
3.14500 3522.0
3.15500 3357.0
3.16500 3167.0
3.17500 3105.0
3.18500 3095.0
3.19500 2854.0
3.20500 2742.0
3.21500 2671.0
3.22500 2703.0
3.23500 2720.0
3.24500 2810.0
3.25500 2821.0
3.26500 2745.0
3.27500 2857.0
3.28500 2873.0
3.29500 2726.0
3.30500 2664.0
3.31500 2406.0
3.32500 2477.0
3.33500 2515.0
3.34500 2468.0
3.35500 2435.0
3.36500 2433.0
3.37500 2363.0
3.38500 2332.0
3.39500 2353.0
3.40500 2285.0
3.41500 2159.0
3.42500 2259.0
3.43500 2283.0
3.44500 2195.0
3.45500 2042.0
3.46500 2019.0
3.47500 1942.0
3.48500 1938.0
3.49500 2078.0
3.50500 2203.0
3.51500 2174.0
3.52500 2068.0
3.53500 2105.0
3.54500 2183.0
3.55500 2050.0
3.56500 2050.0
3.57500 2004.0
3.58500 2036.0
3.59500 2037.0
3.60500 2038.0
3.61500 2095.0
3.62500 1975.0
3.63500 1742.0
3.64500 1792.0
3.65500 1785.0
3.66500 1730.0
3.67500 1765.0
3.68500 1770.0
3.69500 1765.0
3.70500 1727.0
3.71500 1856.0
3.72500 2012.0
3.73500 2255.0
3.74500 2473.0
3.75500 2936.0
3.76500 3009.0
3.77500 2601.0
3.78500 2224.0
3.79500 1731.0
3.80500 1525.0
3.81500 1353.0
3.82500 1335.0
3.83500 1348.0
3.84500 1309.0
3.85500 1281.0
3.86500 1339.0
3.87500 1338.0
3.88500 1280.0
3.89500 1283.0
3.90500 1234.0
3.91500 1359.0
3.92500 1241.0
3.93500 1366.0
3.94500 1358.0
3.95500 1309.0
3.96500 1190.0
3.97500 1109.0
3.98500 1141.0
3.99500 1200.0
4.00500 1116.0
4.01500 1107.0
4.02500 1013.0
4.03500 1036.0
4.04500 1045.0
4.05500 1013.0
4.06500 942.0
4.07500 918.0
4.08500 855.0
4.09500 910.0
4.10500 869.0
4.11500 928.0
4.12500 869.0
4.13500 832.0
4.14500 909.0
4.15500 805.0
4.16500 904.0
4.17500 760.0
4.18500 750.0
4.19500 688.0
4.20500 665.0
4.21500 721.0
4.22500 750.0
4.23500 699.0
4.24500 690.0
4.25500 693.0
4.26500 759.0
4.27500 654.0
4.28500 638.0
4.29500 628.0
4.30500 603.0
4.31500 590.0
4.32500 538.0
4.33500 568.0
4.34500 604.0
4.35500 577.0
4.36500 567.0
4.37500 543.0
4.38500 583.0
4.39500 559.0
4.40500 615.0
4.41500 631.0
4.42500 703.0
4.43500 648.0
4.44500 631.0
4.45500 639.0
4.46500 598.0
4.47500 603.0
4.48500 644.0
4.49500 646.0
4.50500 584.0
4.51500 584.0
4.52500 475.0
4.53500 536.0
4.54500 532.0
4.55500 537.0
4.56500 509.0
4.57500 512.0
4.58500 555.0
4.59500 602.0
4.60500 565.0
4.61500 595.0
4.62500 464.0
4.63500 515.0
4.64500 456.0
4.65500 446.0
4.66500 403.0
4.67500 426.0
4.68500 375.0
4.69500 418.0
4.70500 437.0
4.71500 398.0
4.72500 393.0
4.73500 351.0
4.74500 340.0
4.75500 321.0
4.76500 307.0
4.77500 282.0
4.78500 303.0
4.79500 286.0
4.80500 250.0
4.81500 251.0
4.82500 243.0
4.83500 248.0
4.84500 264.0
4.85500 275.0
4.86500 285.0
4.87500 264.0
4.88500 286.0
4.89500 247.0
4.90500 232.0
4.91500 215.0
4.92500 237.0
4.93500 271.0
4.94500 300.0
4.95500 287.0
4.96500 292.0
4.97500 298.0
4.98500 305.0
4.99500 297.0
5.00500 333.0
5.01500 317.0
5.02500 352.0
5.03500 373.0
5.04500 334.0
5.05500 372.0
5.06500 322.0
5.07500 265.0
5.08500 248.0
5.09500 211.0
5.10500 267.0
5.11500 236.0
5.12500 226.0
5.13500 302.0
5.14500 289.0
5.15500 288.0
5.16500 296.0
5.17500 253.0
5.18500 336.0
5.19500 311.0
5.20500 340.0
5.21500 350.0
5.22500 411.0
5.23500 393.0
5.24500 327.0
5.25500 401.0
5.26500 372.0
5.27500 355.0
5.28500 264.0
5.29500 299.0
5.30500 309.0
5.31500 391.0
5.32500 405.0
5.33500 325.0
5.34500 329.0
5.35500 356.0
5.36500 374.0
5.37500 382.0
5.38500 430.0
5.39500 376.0
5.40500 350.0
5.41500 217.0
5.42500 207.0
5.43500 203.0
5.44500 275.0
5.45500 280.0
5.46500 298.0
5.47500 283.0
5.48500 272.0
5.49500 203.0
5.50500 250.0
5.51500 235.0
5.52500 213.0
5.53500 260.0
5.54500 269.0
5.55500 236.0
5.56500 295.0
5.57500 385.0
5.58500 452.0
5.59500 532.0
5.60500 568.0
5.61500 618.0
5.62500 564.0
5.63500 507.0
5.64500 474.0
5.65500 445.0
5.66500 462.0
5.67500 351.0
5.68500 310.0
5.69500 288.0
5.70500 221.0
5.71500 204.0
5.72500 169.0
5.73500 203.0
5.74500 249.0
5.75500 222.0
5.76500 259.0
5.77500 190.0
5.78500 162.0
5.79500 218.0
5.80500 178.0
5.81500 241.0
5.82500 199.0
5.83500 233.0
5.84500 203.0
5.85500 241.0
5.86500 255.0
5.87500 196.0
5.88500 194.0
5.89500 231.0
5.90500 185.0
5.91500 194.0
5.92500 295.0
5.93500 251.0
5.94500 221.0
5.95500 251.0
5.96500 305.0
5.97500 318.0
5.98500 360.0
5.99500 278.0
6.00500 188.0
6.01500 165.0
6.02500 159.0
6.03500 185.0
6.04500 203.0
6.05500 177.0
6.06500 209.0
6.07500 211.0
6.08500 153.0
6.09500 190.0
6.10500 126.0
6.11500 144.0
6.12500 163.0
6.13500 238.0
6.14500 200.0
6.15500 133.0
6.16500 119.0
6.17500 171.0
6.18500 144.0
6.19500 156.0
6.20500 166.0
6.21500 162.0
6.22500 192.0
6.23500 174.0
6.24500 156.0
6.25500 118.0
6.26500 101.0
6.27500 129.0
6.28500 123.0
6.29500 133.0
6.30500 121.0
6.31500 184.0
6.32500 134.0
6.33500 124.0
6.34500 142.0
6.35500 140.0
6.36500 113.0
6.37500 131.0
6.38500 142.0
6.39500 139.0
6.40500 118.0
6.41500 89.0
6.42500 124.0
6.43500 143.0
6.44500 144.0
6.45500 125.0
6.46500 145.0
6.47500 115.0
6.48500 123.0
6.49500 128.0
6.50500 106.0
6.51500 130.0
6.52500 105.0
6.53500 85.0
6.54500 125.0
6.55500 121.0
6.56500 113.0
6.57500 128.0
6.58500 113.0
6.59500 131.0
6.60500 186.0
6.61500 199.0
6.62500 149.0
6.63500 126.0
6.64500 123.0
6.65500 135.0
6.66500 118.0
6.67500 120.0
6.68500 112.0
6.69500 110.0
6.70500 150.0
6.71500 131.0
6.72500 143.0
6.73500 151.0
6.74500 104.0
6.75500 90.0
6.76500 87.0
6.77500 97.0
6.78500 104.0
6.79500 82.0
6.80500 93.0
6.81500 92.0
6.82500 94.0
6.83500 96.0
6.84500 90.0
6.85500 108.0
6.86500 115.0
6.87500 113.0
6.88500 97.0
6.89500 91.0
6.90500 75.0
6.91500 130.0
6.92500 114.0
6.93500 120.0
6.94500 109.0
6.95500 111.0
6.96500 115.0
6.97500 94.0
6.98500 74.0
6.99500 122.0
7.00500 96.0
7.01500 70.0
7.02500 82.0
7.03500 88.0
7.04500 116.0
7.05500 121.0
7.06500 100.0
7.07500 132.0
7.08500 123.0
7.09500 110.0
7.10500 86.0
7.11500 99.0
7.12500 159.0
7.13500 132.0
7.14500 102.0
7.15500 153.0
7.16500 129.0
7.17500 94.0
7.18500 130.0
7.19500 124.0
7.20500 126.0
7.21500 130.0
7.22500 123.0
7.23500 100.0
7.24500 102.0
7.25500 109.0
7.26500 119.0
7.27500 135.0
7.28500 154.0
7.29500 95.0
7.30500 109.0
7.31500 93.0
7.32500 114.0
7.33500 121.0
7.34500 144.0
7.35500 116.0
7.36500 123.0
7.37500 118.0
7.38500 113.0
7.39500 88.0
7.40500 106.0
7.41500 109.0
7.42500 96.0
7.43500 124.0
7.44500 143.0
7.45500 175.0
7.46500 214.0
7.47500 229.0
7.48500 212.0
7.49500 196.0
7.50500 171.0
7.51500 157.0
7.52500 204.0
7.53500 166.0
7.54500 185.0
7.55500 157.0
7.56500 151.0
7.57500 156.0
7.58500 215.0
7.59500 201.0
7.60500 187.0
7.61500 195.0
7.62500 180.0
7.63500 216.0
7.64500 194.0
7.65500 153.0
7.66500 195.0
7.67500 157.0
7.68500 171.0
7.69500 176.0
7.70500 182.0
7.71500 189.0
7.72500 176.0
7.73500 141.0
7.74500 138.0
7.75500 173.0
7.76500 156.0
7.77500 134.0
7.78500 117.0
7.79500 137.0
7.80500 188.0
7.81500 140.0
7.82500 135.0
7.83500 93.0
7.84500 101.0
7.85500 111.0
7.86500 117.0
7.87500 123.0
7.88500 116.0
7.89500 103.0
7.90500 214.0
7.91500 164.0
7.92500 223.0
7.93500 245.0
7.94500 203.0
7.95500 207.0
7.96500 188.0
7.97500 189.0
7.98500 181.0
7.99500 116.0
