0.34460 45.0
0.34960 42.0
0.35460 60.0
0.35960 41.0
0.36460 64.0
0.36960 42.0
0.37460 42.0
0.37960 48.0
0.38460 46.0
0.38960 46.0
0.39460 32.0
0.39960 46.0
0.40460 39.0
0.40960 52.0
0.41460 43.0
0.41960 50.0
0.42460 40.0
0.42960 38.0
0.43460 50.0
0.43960 66.0
0.44460 60.0
0.44960 33.0
0.45460 69.0
0.45960 57.0
0.46460 52.0
0.46960 72.0
0.47460 79.0
0.47960 73.0
0.48460 69.0
0.48960 77.0
0.49460 99.0
0.49960 121.0
0.50460 118.0
0.50960 109.0
0.51460 124.0
0.51960 123.0
0.52460 128.0
0.52960 122.0
0.53460 152.0
0.53960 141.0
0.54460 156.0
0.54960 149.0
0.55460 193.0
0.55960 181.0
0.56460 185.0
0.56960 193.0
0.57460 200.0
0.57960 211.0
0.58460 206.0
0.58960 241.0
0.59460 196.0
0.59960 197.0
0.60460 212.0
0.60960 225.0
0.61460 255.0
0.61960 250.0
0.62460 263.0
0.62960 258.0
0.63460 286.0
0.63960 276.0
0.64460 301.0
0.64960 281.0
0.65460 278.0
0.65960 320.0
0.66460 332.0
0.66960 360.0
0.67460 361.0
0.67960 395.0
0.68460 343.0
0.68960 311.0
0.69460 348.0
0.69960 354.0
0.70460 363.0
0.70960 375.0
0.71460 381.0
0.71960 413.0
0.72460 388.0
0.72960 415.0
0.73460 458.0
0.73960 464.0
0.74460 472.0
0.74960 512.0
0.75460 551.0
0.75960 569.0
0.76460 590.0
0.76960 596.0
0.77460 750.0
0.77960 757.0
0.78460 743.0
0.78960 912.0
0.79460 1053.0
0.79960 1370.0
0.80460 3371.0
0.80960 19547.0
0.81460 92110.0
0.81960 329299.0
0.82460 774379.0
0.82960 1349443.0
0.83460 1923077.0
0.83960 2304123.0
0.84460 2321818.0
0.84960 1893328.0
0.85460 1225685.0
0.85960 586456.0
0.86460 186685.0
0.86960 32563.0
0.87460 4752.0
0.87960 2087.0
0.88460 1459.0
0.88960 1073.0
0.89460 928.0
0.89960 807.0
0.90460 689.0
0.90960 627.0
0.91460 608.0
0.91960 599.0
0.92460 550.0
0.92960 468.0
0.93460 484.0
0.93960 440.0
0.94460 432.0
0.94960 475.0
0.95460 435.0
0.95960 406.0
0.96460 410.0
0.96960 387.0
0.97460 353.0
0.97960 346.0
0.98460 347.0
0.98960 315.0
0.99460 305.0
0.99960 290.0
1.00460 308.0
1.00960 286.0
1.01460 287.0
1.01960 255.0
1.02460 261.0
1.02960 262.0
1.03460 228.0
1.03960 232.0
1.04460 234.0
1.04960 233.0
1.05460 210.0
1.05960 194.0
1.06460 200.0
1.06960 161.0
1.07460 168.0
1.07960 171.0
1.08460 162.0
1.08960 168.0
1.09460 149.0
1.09960 124.0
1.10460 139.0
1.10960 130.0
1.11460 143.0
1.11960 124.0
1.12460 119.0
1.12960 139.0
1.13460 115.0
1.13960 99.0
1.14460 91.0
1.14960 96.0
1.15460 89.0
1.15960 92.0
1.16460 76.0
1.16960 79.0
1.17460 54.0
1.17960 67.0
1.18460 81.0
1.18960 69.0
1.19460 83.0
1.19960 56.0
1.20460 76.0
1.20960 58.0
1.21460 57.0
1.21960 52.0
1.22460 71.0
1.22960 51.0
1.23460 61.0
1.23960 49.0
1.24460 39.0
1.24960 35.0
1.25460 50.0
1.25960 38.0
1.26460 43.0
1.26960 43.0
1.27460 29.0
1.27960 41.0
1.28460 34.0
1.28960 31.0
1.29460 58.0
1.29960 49.0
1.30460 41.0
1.30960 39.0
1.31460 30.0
1.31960 33.0
1.32460 36.0
