0.04160 553.0
0.05160 638.0
0.06160 626.0
0.07160 705.0
0.08160 708.0
0.09160 720.0
0.10160 641.0
0.11160 521.0
0.12160 583.0
0.13160 597.0
0.14160 656.0
0.15160 549.0
0.16160 609.0
0.17160 627.0
0.18160 629.0
0.19160 787.0
0.20160 839.0
0.21160 983.0
0.22160 811.0
0.23160 786.0
0.24160 716.0
0.25160 739.0
0.26160 768.0
0.27160 816.0
0.28160 826.0
0.29160 915.0
0.30160 917.0
0.31160 989.0
0.32160 1048.0
0.33160 1129.0
0.34160 1152.0
0.35160 1290.0
0.36160 1425.0
0.37160 1525.0
0.38160 1511.0
0.39160 1563.0
0.40160 1712.0
0.41160 1731.0
0.42160 1824.0
0.43160 2106.0
0.44160 2324.0
0.45160 2291.0
0.46160 2493.0
0.47160 2662.0
0.48160 2981.0
0.49160 3235.0
0.50160 3480.0
0.51160 3976.0
0.52160 4338.0
0.53160 4747.0
0.54160 5356.0
0.55160 5973.0
0.56160 6838.0
0.57160 7330.0
0.58160 8303.0
0.59160 8800.0
0.60160 10011.0
0.61160 10619.0
0.62160 11962.0
0.63160 12938.0
0.64160 13899.0
0.65160 14941.0
0.66160 16221.0
0.67160 16940.0
0.68160 18336.0
0.69160 19230.0
0.70160 20159.0
0.71160 21286.0
0.72160 21777.0
0.73160 22942.0
0.74160 23923.0
0.75160 25217.0
0.76160 26075.0
0.77160 27451.0
0.78160 28102.0
0.79160 29319.0
0.80160 30679.0
0.81160 31901.0
0.82160 33141.0
0.83160 34627.0
0.84160 36247.0
0.85160 37908.0
0.86160 39617.0
0.87160 41141.0
0.88160 43040.0
0.89160 45369.0
0.90160 47586.0
0.91160 49969.0
0.92160 52301.0
0.93160 56580.0
0.94160 60363.0
0.95160 65127.0
0.96160 71233.0
0.97160 78030.0
0.98160 120625.0
0.99160 644557.0
1.00160 4303279.0
1.01160 12093803.0
1.02160 18892554.0
1.03160 22034682.0
1.04160 19006264.0
1.05160 10453018.0
1.06160 2099715.0
1.07160 152210.0
1.08160 83850.0
1.09160 71827.0
1.10160 63845.0
1.11160 57764.0
1.12160 52165.0
1.13160 47738.0
1.14160 43361.0
1.15160 39696.0
1.16160 36907.0
1.17160 34405.0
1.18160 31932.0
1.19160 30169.0
1.20160 27839.0
1.21160 26272.0
1.22160 25550.0
1.23160 23048.0
1.24160 21646.0
1.25160 20218.0
1.26160 18513.0
1.27160 17266.0
1.28160 16130.0
1.29160 14976.0
1.30160 13885.0
1.31160 12763.0
1.32160 11494.0
1.33160 10612.0
1.34160 9727.0
1.35160 8890.0
1.36160 8129.0
1.37160 7449.0
1.38160 6664.0
1.39160 5925.0
1.40160 5200.0
1.41160 4644.0
1.42160 4179.0
1.43160 3685.0
1.44160 3156.0
1.45160 2831.0
1.46160 2544.0
1.47160 2199.0
1.48160 1989.0
1.49160 1801.0
1.50160 1580.0
1.51160 1356.0
1.52160 1278.0
1.53160 1117.0
1.54160 1068.0
1.55160 983.0
1.56160 834.0
1.57160 813.0
1.58160 735.0
1.59160 635.0
1.60160 596.0
1.61160 630.0
1.62160 592.0
1.63160 549.0
1.64160 554.0
1.65160 591.0
1.66160 449.0
1.67160 377.0
1.68160 473.0
1.69160 482.0
1.70160 470.0
1.71160 459.0
1.72160 451.0
1.73160 463.0
1.74160 522.0
1.75160 519.0
1.76160 460.0
1.77160 448.0
1.78160 302.0
1.79160 257.0
1.80160 215.0
1.81160 312.0
1.82160 277.0
1.83160 249.0
1.84160 286.0
1.85160 306.0
1.86160 308.0
1.87160 304.0
1.88160 333.0
1.89160 520.0
1.90160 422.0
1.91160 407.0
1.92160 420.0
1.93160 296.0
1.94160 257.0
1.95160 309.0
1.96160 307.0
1.97160 240.0
1.98160 258.0
1.99160 294.0
2.00160 344.0
2.01160 342.0
2.02160 339.0
