0.03040 119.0
0.04040 151.0
0.05040 114.0
0.06040 127.0
0.07040 170.0
0.08040 175.0
0.09040 174.0
0.10040 184.0
0.11040 150.0
0.12040 168.0
0.13040 158.0
0.14040 176.0
0.15040 189.0
0.16040 180.0
0.17040 186.0
0.18040 188.0
0.19040 167.0
0.20040 215.0
0.21040 210.0
0.22040 221.0
0.23040 245.0
0.24040 240.0
0.25040 290.0
0.26040 239.0
0.27040 288.0
0.28040 304.0
0.29040 347.0
0.30040 335.0
0.31040 320.0
0.32040 362.0
0.33040 364.0
0.34040 397.0
0.35040 449.0
0.36040 425.0
0.37040 493.0
0.38040 486.0
0.39040 545.0
0.40040 519.0
0.41040 564.0
0.42040 623.0
0.43040 635.0
0.44040 682.0
0.45040 763.0
0.46040 785.0
0.47040 873.0
0.48040 941.0
0.49040 986.0
0.50040 1091.0
0.51040 1272.0
0.52040 1361.0
0.53040 1377.0
0.54040 1602.0
0.55040 1841.0
0.56040 1966.0
0.57040 2147.0
0.58040 2541.0
0.59040 2646.0
0.60040 3044.0
0.61040 3103.0
0.62040 3738.0
0.63040 3952.0
0.64040 4423.0
0.65040 4892.0
0.66040 5116.0
0.67040 5664.0
0.68040 6002.0
0.69040 6662.0
0.70040 7029.0
0.71040 7471.0
0.72040 7952.0
0.73040 8465.0
0.74040 8762.0
0.75040 9297.0
0.76040 9610.0
0.77040 10219.0
0.78040 10386.0
0.79040 10973.0
0.80040 11182.0
0.81040 11647.0
0.82040 12081.0
0.83040 12698.0
0.84040 13115.0
0.85040 13604.0
0.86040 14187.0
0.87040 14816.0
0.88040 15169.0
0.89040 15623.0
0.90040 16708.0
0.91040 17237.0
0.92040 18301.0
0.93040 19435.0
0.94040 20751.0
0.95040 22469.0
0.96040 25914.0
0.97040 61720.0
0.98040 540421.0
0.99040 3074331.0
1.00040 8287621.0
1.01040 13027662.0
1.02040 16136082.0
1.03040 13750399.0
1.04040 6541990.0
1.05040 1280040.0
1.06040 70531.0
1.07040 25293.0
1.08040 21970.0
1.09040 19517.0
1.10040 18085.0
1.11040 16491.0
1.12040 15548.0
1.13040 14573.0
1.14040 13482.0
1.15040 12943.0
1.16040 11851.0
1.17040 11586.0
1.18040 10607.0
1.19040 10287.0
1.20040 9444.0
1.21040 8835.0
1.22040 8517.0
1.23040 7910.0
1.24040 7770.0
1.25040 7011.0
1.26040 6590.0
1.27040 6088.0
1.28040 5664.0
1.29040 5300.0
1.30040 4841.0
1.31040 4452.0
1.32040 4191.0
1.33040 3720.0
1.34040 3370.0
1.35040 2916.0
1.36040 2811.0
1.37040 2481.0
1.38040 2120.0
1.39040 1938.0
1.40040 1693.0
1.41040 1464.0
1.42040 1350.0
1.43040 1170.0
1.44040 995.0
1.45040 868.0
1.46040 785.0
1.47040 707.0
1.48040 620.0
1.49040 620.0
1.50040 491.0
1.51040 451.0
1.52040 435.0
1.53040 380.0
1.54040 354.0
1.55040 320.0
1.56040 313.0
1.57040 284.0
1.58040 262.0
1.59040 219.0
1.60040 217.0
1.61040 226.0
1.62040 184.0
1.63040 179.0
1.64040 163.0
1.65040 172.0
1.66040 169.0
1.67040 171.0
1.68040 208.0
1.69040 160.0
1.70040 136.0
1.71040 165.0
1.72040 134.0
1.73040 162.0
1.74040 141.0
1.75040 148.0
1.76040 118.0
1.77040 138.0
1.78040 137.0
1.79040 113.0
1.80040 107.0
1.81040 130.0
1.82040 100.0
1.83040 142.0
1.84040 95.0
1.85040 96.0
1.86040 101.0
1.87040 109.0
1.88040 90.0
1.89040 105.0
1.90040 83.0
1.91040 72.0
1.92040 83.0
1.93040 108.0
1.94040 93.0
1.95040 91.0
1.96040 80.0
1.97040 75.0
1.98040 83.0
1.99040 84.0
2.00040 99.0
2.01040 77.0
