-0.01500 85.0
-0.00500 92.0
0.00500 82.0
0.01500 95.0
0.02500 130.0
0.03500 90.0
0.04500 117.0
0.05500 121.0
0.06500 129.0
0.07500 98.0
0.08500 84.0
0.09500 95.0
0.10500 77.0
0.11500 83.0
0.12500 82.0
0.13500 97.0
0.14500 123.0
0.15500 100.0
0.16500 111.0
0.17500 109.0
0.18500 113.0
0.19500 136.0
0.20500 116.0
0.21500 147.0
0.22500 118.0
0.23500 109.0
0.24500 127.0
0.25500 134.0
0.26500 179.0
0.27500 155.0
0.28500 208.0
0.29500 225.0
0.30500 203.0
0.31500 218.0
0.32500 226.0
0.33500 286.0
0.34500 288.0
0.35500 306.0
0.36500 300.0
0.37500 340.0
0.38500 335.0
0.39500 445.0
0.40500 454.0
0.41500 551.0
0.42500 546.0
0.43500 619.0
0.44500 661.0
0.45500 746.0
0.46500 844.0
0.47500 959.0
0.48500 1094.0
0.49500 1227.0
0.50500 1366.0
0.51500 1620.0
0.52500 1782.0
0.53500 1996.0
0.54500 2420.0
0.55500 2552.0
0.56500 2907.0
0.57500 3224.0
0.58500 3694.0
0.59500 4150.0
0.60500 4492.0
0.61500 4962.0
0.62500 5467.0
0.63500 5591.0
0.64500 6061.0
0.65500 6566.0
0.66500 7185.0
0.67500 7803.0
0.68500 8237.0
0.69500 8537.0
0.70500 9284.0
0.71500 10025.0
0.72500 10203.0
0.73500 11131.0
0.74500 11320.0
0.75500 12089.0
0.76500 12849.0
0.77500 13631.0
0.78500 14373.0
0.79500 14975.0
0.80500 15974.0
0.81500 16890.0
0.82500 18047.0
0.83500 18825.0
0.84500 20234.0
0.85500 21948.0
0.86500 23759.0
0.87500 25442.0
0.88500 27932.0
0.89500 31860.0
0.90500 36904.0
0.91500 46352.0
0.92500 93018.0
0.93500 530172.0
0.94500 2427086.0
0.95500 5646427.0
0.96500 8930720.0
0.97500 11351540.0
0.98500 9964249.0
0.99500 4907800.0
1.00500 809894.0
1.01500 73490.0
1.02500 43366.0
1.03500 34829.0
1.04500 30320.0
1.05500 25971.0
1.06500 23371.0
1.07500 20954.0
1.08500 19257.0
1.09500 17919.0
1.10500 16111.0
1.11500 14873.0
1.12500 13927.0
1.13500 13458.0
1.14500 12295.0
1.15500 11502.0
1.16500 10469.0
1.17500 9806.0
1.18500 9222.0
1.19500 8473.0
1.20500 7972.0
1.21500 7370.0
1.22500 6745.0
1.23500 6203.0
1.24500 5675.0
1.25500 5219.0
1.26500 4850.0
1.27500 4421.0
1.28500 3840.0
1.29500 3514.0
1.30500 3240.0
1.31500 2838.0
1.32500 2576.0
1.33500 2240.0
1.34500 2056.0
1.35500 1743.0
1.36500 1662.0
1.37500 1388.0
1.38500 1269.0
1.39500 1099.0
1.40500 973.0
1.41500 841.0
1.42500 748.0
1.43500 627.0
1.44500 604.0
1.45500 514.0
1.46500 457.0
1.47500 405.0
1.48500 353.0
1.49500 331.0
1.50500 352.0
1.51500 295.0
1.52500 283.0
1.53500 258.0
1.54500 216.0
1.55500 241.0
1.56500 234.0
1.57500 225.0
1.58500 206.0
1.59500 160.0
1.60500 157.0
1.61500 147.0
1.62500 149.0
1.63500 152.0
1.64500 119.0
1.65500 115.0
1.66500 122.0
1.67500 102.0
1.68500 113.0
1.69500 108.0
1.70500 101.0
1.71500 83.0
1.72500 91.0
1.73500 78.0
1.74500 50.0
1.75500 67.0
1.76500 47.0
1.77500 62.0
1.78500 64.0
1.79500 51.0
1.80500 60.0
1.81500 54.0
1.82500 51.0
1.83500 93.0
1.84500 63.0
1.85500 84.0
1.86500 66.0
1.87500 77.0
1.88500 84.0
1.89500 84.0
1.90500 71.0
1.91500 58.0
1.92500 52.0
1.93500 52.0
1.94500 51.0
1.95500 56.0
1.96500 42.0
