-9.899999999999999911e-01 4.900000000000000000e+01
-9.799999999999999822e-01 4.200000000000000000e+01
-9.699999999999999734e-01 5.700000000000000000e+01
-9.600000000000000755e-01 5.400000000000000000e+01
-9.500000000000000666e-01 7.200000000000000000e+01
-9.400000000000000577e-01 7.700000000000000000e+01
-9.300000000000000488e-01 7.700000000000000000e+01
-9.200000000000000400e-01 8.400000000000000000e+01
-9.100000000000000311e-01 1.220000000000000000e+02
-9.000000000000000222e-01 8.200000000000000000e+01
-8.900000000000000133e-01 1.140000000000000000e+02
-8.800000000000000044e-01 1.090000000000000000e+02
-8.699999999999999956e-01 8.800000000000000000e+01
-8.599999999999999867e-01 7.900000000000000000e+01
-8.500000000000000888e-01 1.000000000000000000e+02
-8.400000000000000799e-01 1.070000000000000000e+02
-8.300000000000000711e-01 8.900000000000000000e+01
-8.200000000000000622e-01 7.800000000000000000e+01
-8.100000000000000533e-01 1.050000000000000000e+02
-8.000000000000000444e-01 1.300000000000000000e+02
-7.900000000000000355e-01 1.120000000000000000e+02
-7.800000000000000266e-01 1.300000000000000000e+02
-7.700000000000000178e-01 1.320000000000000000e+02
-7.600000000000000089e-01 1.310000000000000000e+02
-7.500000000000000000e-01 1.360000000000000000e+02
-7.399999999999999911e-01 1.640000000000000000e+02
-7.299999999999999822e-01 1.370000000000000000e+02
-7.199999999999999734e-01 1.460000000000000000e+02
-7.099999999999999645e-01 1.610000000000000000e+02
-6.999999999999999556e-01 1.900000000000000000e+02
-6.899999999999999467e-01 1.840000000000000000e+02
-6.800000000000000488e-01 2.010000000000000000e+02
-6.700000000000000400e-01 1.890000000000000000e+02
-6.600000000000000311e-01 2.570000000000000000e+02
-6.500000000000000222e-01 2.410000000000000000e+02
-6.400000000000000133e-01 2.390000000000000000e+02
-6.300000000000000044e-01 3.140000000000000000e+02
-6.200000000000001066e-01 3.530000000000000000e+02
-6.100000000000000977e-01 4.300000000000000000e+02
-6.000000000000000888e-01 4.320000000000000000e+02
-5.900000000000000799e-01 4.960000000000000000e+02
-5.800000000000000711e-01 5.050000000000000000e+02
-5.700000000000000622e-01 5.030000000000000000e+02
-5.600000000000000533e-01 5.270000000000000000e+02
-5.500000000000000444e-01 4.920000000000000000e+02
-5.400000000000000355e-01 4.830000000000000000e+02
-5.300000000000000266e-01 5.370000000000000000e+02
-5.200000000000000178e-01 5.830000000000000000e+02
-5.100000000000000089e-01 6.530000000000000000e+02
-5.000000000000000000e-01 7.240000000000000000e+02
-4.900000000000000466e-01 7.720000000000000000e+02
-4.800000000000000377e-01 8.860000000000000000e+02
-4.700000000000000289e-01 9.750000000000000000e+02
-4.600000000000000755e-01 1.094000000000000000e+03
-4.500000000000000666e-01 1.222000000000000000e+03
-4.400000000000000577e-01 1.350000000000000000e+03
-4.300000000000000488e-01 1.527000000000000000e+03
-4.200000000000000400e-01 1.717000000000000000e+03
-4.100000000000000311e-01 1.892000000000000000e+03
-4.000000000000000222e-01 2.053000000000000000e+03
-3.900000000000000133e-01 2.368000000000000000e+03
-3.800000000000000044e-01 2.537000000000000000e+03
-3.699999999999999956e-01 2.764000000000000000e+03
-3.599999999999999867e-01 3.041000000000000000e+03
-3.499999999999999778e-01 3.353000000000000000e+03
-3.400000000000000799e-01 3.638000000000000000e+03
-3.300000000000000711e-01 3.836000000000000000e+03
-3.200000000000000622e-01 4.361000000000000000e+03
-3.100000000000000533e-01 4.663000000000000000e+03
-3.000000000000000444e-01 4.866000000000000000e+03
-2.900000000000000355e-01 5.112000000000000000e+03
-2.800000000000000266e-01 5.416000000000000000e+03
-2.700000000000000178e-01 5.771000000000000000e+03
-2.600000000000000089e-01 5.883000000000000000e+03
-2.500000000000000000e-01 6.159000000000000000e+03
-2.399999999999999911e-01 6.502000000000000000e+03
-2.299999999999999822e-01 6.679000000000000000e+03
-2.199999999999999734e-01 6.974000000000000000e+03
-2.100000000000000755e-01 7.152000000000000000e+03
-2.000000000000000666e-01 7.221000000000000000e+03
-1.900000000000000577e-01 7.686000000000000000e+03
-1.800000000000000488e-01 7.923000000000000000e+03
-1.700000000000000400e-01 8.296000000000000000e+03
-1.600000000000000311e-01 8.435000000000000000e+03
-1.500000000000000222e-01 8.625000000000000000e+03
-1.400000000000000133e-01 9.127000000000000000e+03
-1.300000000000000044e-01 9.438000000000000000e+03
-1.199999999999999956e-01 9.993000000000000000e+03
-1.099999999999999867e-01 1.039200000000000000e+04
-9.999999999999997780e-02 1.079800000000000000e+04
-9.000000000000007994e-02 1.163200000000000000e+04
-8.000000000000007105e-02 1.264600000000000000e+04
-7.000000000000006217e-02 1.386800000000000000e+04
-6.000000000000005329e-02 1.661900000000000000e+04
-5.000000000000004441e-02 6.132800000000000000e+04
-4.000000000000003553e-02 6.171380000000000000e+05
-3.000000000000002665e-02 2.198836000000000000e+06
-2.000000000000001776e-02 4.816585000000000000e+06
-1.000000000000000888e-02 8.225983000000000000e+06
0.000000000000000000e+00 1.077665900000000000e+07
1.000000000000000888e-02 1.033560800000000000e+07
2.000000000000001776e-02 6.014099000000000000e+06
3.000000000000002665e-02 1.536496000000000000e+06
4.000000000000003553e-02 9.331800000000000000e+04
5.000000000000004441e-02 1.836600000000000000e+04
6.000000000000005329e-02 1.415400000000000000e+04
7.000000000000006217e-02 1.219200000000000000e+04
8.000000000000007105e-02 1.079000000000000000e+04
9.000000000000007994e-02 9.960000000000000000e+03
9.999999999999986677e-02 9.204000000000000000e+03
1.099999999999998757e-01 8.489000000000000000e+03
1.199999999999998845e-01 7.989000000000000000e+03
1.299999999999998934e-01 7.483000000000000000e+03
1.399999999999999023e-01 7.019000000000000000e+03
1.499999999999999112e-01 6.779000000000000000e+03
1.599999999999999201e-01 6.364000000000000000e+03
1.699999999999999289e-01 5.823000000000000000e+03
1.799999999999999378e-01 5.637000000000000000e+03
1.899999999999999467e-01 5.570000000000000000e+03
1.999999999999999556e-01 5.207000000000000000e+03
2.099999999999999645e-01 4.983000000000000000e+03
2.199999999999999734e-01 4.621000000000000000e+03
2.299999999999999822e-01 4.358000000000000000e+03
2.399999999999999911e-01 4.041000000000000000e+03
2.500000000000000000e-01 3.809000000000000000e+03
2.600000000000000089e-01 3.498000000000000000e+03
2.700000000000000178e-01 3.323000000000000000e+03
2.800000000000000266e-01 3.035000000000000000e+03
2.900000000000000355e-01 2.841000000000000000e+03
3.000000000000000444e-01 2.492000000000000000e+03
3.100000000000000533e-01 2.454000000000000000e+03
3.200000000000000622e-01 2.171000000000000000e+03
3.300000000000000711e-01 1.970000000000000000e+03
3.400000000000000799e-01 1.851000000000000000e+03
3.499999999999998668e-01 1.647000000000000000e+03
3.599999999999998757e-01 1.429000000000000000e+03
3.699999999999998845e-01 1.293000000000000000e+03
3.799999999999998934e-01 1.104000000000000000e+03
3.899999999999999023e-01 1.011000000000000000e+03
3.999999999999999112e-01 8.570000000000000000e+02
4.099999999999999201e-01 7.730000000000000000e+02
4.199999999999999289e-01 6.330000000000000000e+02
4.299999999999999378e-01 6.380000000000000000e+02
4.399999999999999467e-01 5.380000000000000000e+02
4.499999999999999556e-01 4.670000000000000000e+02
4.599999999999999645e-01 3.880000000000000000e+02
4.699999999999999734e-01 3.700000000000000000e+02
4.799999999999999822e-01 3.000000000000000000e+02
4.899999999999999911e-01 3.110000000000000000e+02
5.000000000000000000e-01 2.370000000000000000e+02
5.100000000000000089e-01 2.570000000000000000e+02
5.200000000000000178e-01 2.180000000000000000e+02
5.300000000000000266e-01 1.850000000000000000e+02
5.400000000000000355e-01 1.610000000000000000e+02
5.500000000000000444e-01 1.760000000000000000e+02
5.600000000000000533e-01 1.630000000000000000e+02
5.700000000000000622e-01 1.460000000000000000e+02
5.800000000000000711e-01 1.480000000000000000e+02
5.900000000000000799e-01 1.370000000000000000e+02
5.999999999999998668e-01 1.240000000000000000e+02
6.099999999999998757e-01 1.210000000000000000e+02
6.199999999999998845e-01 9.300000000000000000e+01
6.299999999999998934e-01 9.000000000000000000e+01
6.399999999999999023e-01 1.070000000000000000e+02
6.499999999999999112e-01 9.100000000000000000e+01
6.599999999999999201e-01 7.600000000000000000e+01
6.699999999999999289e-01 1.060000000000000000e+02
6.799999999999999378e-01 8.100000000000000000e+01
6.899999999999999467e-01 7.100000000000000000e+01
6.999999999999999556e-01 8.200000000000000000e+01
7.099999999999999645e-01 7.300000000000000000e+01
7.199999999999999734e-01 7.300000000000000000e+01
7.299999999999999822e-01 7.700000000000000000e+01
7.399999999999999911e-01 7.200000000000000000e+01
7.500000000000000000e-01 6.900000000000000000e+01
7.600000000000000089e-01 6.500000000000000000e+01
7.700000000000000178e-01 4.500000000000000000e+01
7.800000000000000266e-01 6.600000000000000000e+01
7.900000000000000355e-01 7.200000000000000000e+01
8.000000000000000444e-01 7.100000000000000000e+01
8.100000000000000533e-01 6.100000000000000000e+01
8.200000000000000622e-01 4.800000000000000000e+01
8.300000000000000711e-01 5.300000000000000000e+01
8.400000000000000799e-01 5.200000000000000000e+01
8.499999999999998668e-01 5.500000000000000000e+01
8.599999999999998757e-01 6.300000000000000000e+01
8.699999999999998845e-01 5.800000000000000000e+01
8.799999999999998934e-01 5.900000000000000000e+01
8.899999999999999023e-01 7.200000000000000000e+01
8.999999999999999112e-01 5.300000000000000000e+01
9.099999999999999201e-01 5.400000000000000000e+01
9.199999999999999289e-01 5.100000000000000000e+01
9.299999999999999378e-01 4.700000000000000000e+01
9.399999999999999467e-01 4.500000000000000000e+01
9.499999999999999556e-01 5.300000000000000000e+01
9.599999999999999645e-01 3.400000000000000000e+01
9.699999999999999734e-01 3.500000000000000000e+01
9.799999999999999822e-01 4.700000000000000000e+01
9.899999999999999911e-01 3.500000000000000000e+01
