0.39710 58.0
0.40210 60.0
0.40710 49.0
0.41210 62.0
0.41710 72.0
0.42210 67.0
0.42710 56.0
0.43210 57.0
0.43710 66.0
0.44210 55.0
0.44710 79.0
0.45210 59.0
0.45710 61.0
0.46210 71.0
0.46710 73.0
0.47210 68.0
0.47710 80.0
0.48210 67.0
0.48710 67.0
0.49210 80.0
0.49710 119.0
0.50210 110.0
0.50710 141.0
0.51210 135.0
0.51710 156.0
0.52210 173.0
0.52710 182.0
0.53210 173.0
0.53710 134.0
0.54210 112.0
0.54710 102.0
0.55210 111.0
0.55710 141.0
0.56210 191.0
0.56710 136.0
0.57210 119.0
0.57710 153.0
0.58210 131.0
0.58710 137.0
0.59210 141.0
0.59710 151.0
0.60210 150.0
0.60710 175.0
0.61210 169.0
0.61710 195.0
0.62210 147.0
0.62710 143.0
0.63210 143.0
0.63710 196.0
0.64210 162.0
0.64710 153.0
0.65210 162.0
0.65710 161.0
0.66210 201.0
0.66710 157.0
0.67210 173.0
0.67710 174.0
0.68210 187.0
0.68710 199.0
0.69210 184.0
0.69710 169.0
0.70210 170.0
0.70710 217.0
0.71210 220.0
0.71710 257.0
0.72210 285.0
0.72710 279.0
0.73210 306.0
0.73710 329.0
0.74210 320.0
0.74710 366.0
0.75210 347.0
0.75710 360.0
0.76210 343.0
0.76710 363.0
0.77210 340.0
0.77710 389.0
0.78210 429.0
0.78710 367.0
0.79210 404.0
0.79710 408.0
0.80210 432.0
0.80710 482.0
0.81210 519.0
0.81710 531.0
0.82210 622.0
0.82710 712.0
0.83210 736.0
0.83710 905.0
0.84210 1087.0
0.84710 2626.0
0.85210 11659.0
0.85710 48497.0
0.86210 146746.0
0.86710 301714.0
0.87210 504195.0
0.87710 693538.0
0.88210 813154.0
0.88710 843125.0
0.89210 795641.0
0.89710 688766.0
0.90210 561408.0
0.90710 425077.0
0.91210 290227.0
0.91710 175442.0
0.92210 85306.0
0.92710 28157.0
0.93210 6283.0
0.93710 1599.0
0.94210 991.0
0.94710 811.0
0.95210 624.0
0.95710 614.0
0.96210 526.0
0.96710 484.0
0.97210 474.0
0.97710 407.0
0.98210 433.0
0.98710 334.0
0.99210 351.0
0.99710 383.0
1.00210 339.0
1.00710 284.0
1.01210 293.0
1.01710 289.0
1.02210 287.0
1.02710 269.0
1.03210 259.0
1.03710 254.0
1.04210 239.0
1.04710 224.0
1.05210 200.0
1.05710 215.0
1.06210 203.0
1.06710 192.0
1.07210 176.0
1.07710 146.0
1.08210 157.0
1.08710 171.0
1.09210 149.0
1.09710 156.0
1.10210 151.0
1.10710 141.0
1.11210 145.0
1.11710 159.0
1.12210 138.0
1.12710 135.0
1.13210 147.0
1.13710 139.0
1.14210 111.0
1.14710 130.0
1.15210 156.0
1.15710 123.0
1.16210 136.0
1.16710 153.0
1.17210 134.0
1.17710 149.0
1.18210 101.0
1.18710 104.0
1.19210 96.0
1.19710 117.0
1.20210 118.0
1.20710 87.0
1.21210 70.0
1.21710 103.0
1.22210 96.0
1.22710 97.0
1.23210 91.0
1.23710 99.0
1.24210 103.0
1.24710 82.0
1.25210 71.0
1.25710 96.0
1.26210 87.0
1.26710 109.0
1.27210 94.0
1.27710 106.0
1.28210 84.0
1.28710 76.0
1.29210 83.0
1.29710 73.0
1.30210 73.0
1.30710 76.0
1.31210 74.0
1.31710 68.0
1.32210 69.0
1.32710 62.0
1.33210 77.0
1.33710 57.0
1.34210 46.0
1.34710 78.0
1.35210 81.0
1.35710 78.0
1.36210 72.0
1.36710 64.0
1.37210 42.0
1.37710 41.0
