0.200000 1.0
0.210000 4.0
0.220000 3.0
0.230000 3.0
0.240000 4.0
0.250000 3.0
0.260000 4.0
0.270000 4.0
0.280000 11.0
0.290000 4.0
0.300000 9.0
0.310000 11.0
0.320000 5.0
0.330000 17.0
0.340000 12.0
0.350000 14.0
0.360000 13.0
0.370000 16.0
0.380000 19.0
0.390000 15.0
0.400000 21.0
0.410000 16.0
0.420000 13.0
0.430000 25.0
0.440000 21.0
0.450000 20.0
0.460000 22.0
0.470000 23.0
0.480000 23.0
0.490000 48.0
0.500000 32.0
0.510000 38.0
0.520000 48.0
0.530000 52.0
0.540000 52.0
0.550000 67.0
0.560000 72.0
0.570000 64.0
0.580000 90.0
0.590000 104.0
0.600000 121.0
0.610000 144.0
0.620000 190.0
0.630000 202.0
0.640000 256.0
0.650000 259.0
0.660000 299.0
0.670000 276.0
0.680000 365.0
0.690000 380.0
0.700000 392.0
0.710000 400.0
0.720000 458.0
0.730000 433.0
0.740000 471.0
0.750000 480.0
0.760000 502.0
0.770000 534.0
0.780000 548.0
0.790000 605.0
0.800000 552.0
0.810000 650.0
0.820000 571.0
0.830000 625.0
0.840000 620.0
0.850000 571.0
0.860000 615.0
0.870000 660.0
0.880000 640.0
0.890000 697.0
0.900000 655.0
0.910000 697.0
0.920000 762.0
0.930000 734.0
0.940000 767.0
0.950000 870.0
0.960000 900.0
0.970000 1063.0
0.980000 1406.0
0.990000 1798.0
1.000000 2275.0
1.010000 3648.0
1.020000 26276.0
1.030000 132132.0
1.040000 262656.0
1.050000 284516.0
1.060000 199898.0
1.070000 88744.0
1.080000 7921.0
1.090000 1024.0
1.100000 818.0
1.110000 756.0
1.120000 740.0
1.130000 671.0
1.140000 635.0
1.150000 671.0
1.160000 640.0
1.170000 586.0
1.180000 571.0
1.190000 586.0
1.200000 515.0
1.210000 557.0
1.220000 502.0
1.230000 493.0
1.240000 520.0
1.250000 445.0
1.260000 458.0
1.270000 404.0
1.280000 412.0
1.290000 388.0
1.300000 350.0
1.310000 346.0
1.320000 328.0
1.330000 310.0
1.340000 266.0
1.350000 250.0
1.360000 237.0
1.370000 225.0
1.380000 188.0
1.390000 202.0
1.400000 151.0
1.410000 159.0
1.420000 132.0
1.430000 146.0
1.440000 100.0
1.450000 100.0
1.460000 72.0
1.470000 67.0
1.480000 76.0
1.490000 83.0
1.500000 50.0
1.510000 38.0
1.520000 42.0
1.530000 36.0
1.540000 38.0
1.550000 32.0
1.560000 26.0
1.570000 31.0
1.580000 18.0
1.590000 15.0
1.600000 20.0
1.610000 17.0
1.620000 12.0
1.630000 19.0
1.640000 17.0
1.650000 14.0
1.660000 26.0
1.670000 16.0
1.680000 20.0
1.690000 15.0
1.700000 12.0
1.710000 16.0
1.720000 11.0
1.730000 17.0
1.740000 11.0
1.750000 9.0
1.760000 9.0
1.770000 14.0
1.780000 6.0
