0.01740 158.0
0.02740 159.0
0.03740 163.0
0.04740 142.0
0.05740 146.0
0.06740 164.0
0.07740 180.0
0.08740 180.0
0.09740 175.0
0.10740 158.0
0.11740 147.0
0.12740 103.0
0.13740 107.0
0.14740 124.0
0.15740 104.0
0.16740 128.0
0.17740 149.0
0.18740 149.0
0.19740 135.0
0.20740 125.0
0.21740 129.0
0.22740 129.0
0.23740 145.0
0.24740 146.0
0.25740 139.0
0.26740 187.0
0.27740 162.0
0.28740 192.0
0.29740 180.0
0.30740 153.0
0.31740 152.0
0.32740 188.0
0.33740 211.0
0.34740 225.0
0.35740 226.0
0.36740 218.0
0.37740 228.0
0.38740 225.0
0.39740 252.0
0.40740 254.0
0.41740 284.0
0.42740 313.0
0.43740 331.0
0.44740 372.0
0.45740 377.0
0.46740 362.0
0.47740 343.0
0.48740 356.0
0.49740 392.0
0.50740 395.0
0.51740 351.0
0.52740 369.0
0.53740 392.0
0.54740 435.0
0.55740 490.0
0.56740 470.0
0.57740 474.0
0.58740 490.0
0.59740 521.0
0.60740 558.0
0.61740 569.0
0.62740 634.0
0.63740 676.0
0.64740 685.0
0.65740 790.0
0.66740 732.0
0.67740 819.0
0.68740 847.0
0.69740 958.0
0.70740 890.0
0.71740 988.0
0.72740 1013.0
0.73740 1078.0
0.74740 1060.0
0.75740 1252.0
0.76740 1232.0
0.77740 1352.0
0.78740 1364.0
0.79740 1441.0
0.80740 1596.0
0.81740 1593.0
0.82740 1697.0
0.83740 1864.0
0.84740 1896.0
0.85740 1938.0
0.86740 2081.0
0.87740 2146.0
0.88740 2194.0
0.89740 2270.0
0.90740 2305.0
0.91740 2461.0
0.92740 2630.0
0.93740 2847.0
0.94740 3634.0
0.95740 11226.0
0.96740 78799.0
0.97740 346259.0
0.98740 1103824.0
0.99740 2698235.0
1.00740 4075762.0
1.01740 2534584.0
1.02740 397072.0
1.03740 15936.0
1.04740 3586.0
1.05740 2470.0
1.06740 1948.0
1.07740 1624.0
1.08740 1478.0
1.09740 1261.0
1.10740 1175.0
1.11740 1119.0
1.12740 912.0
1.13740 851.0
1.14740 806.0
1.15740 778.0
1.16740 720.0
1.17740 699.0
1.18740 615.0
1.19740 593.0
1.20740 536.0
1.21740 568.0
1.22740 521.0
1.23740 512.0
1.24740 417.0
1.25740 374.0
1.26740 371.0
1.27740 379.0
1.28740 333.0
1.29740 334.0
1.30740 292.0
1.31740 266.0
1.32740 258.0
1.33740 261.0
1.34740 234.0
1.35740 217.0
1.36740 215.0
1.37740 191.0
1.38740 197.0
1.39740 186.0
1.40740 229.0
1.41740 212.0
1.42740 151.0
1.43740 153.0
1.44740 165.0
1.45740 178.0
1.46740 172.0
1.47740 188.0
1.48740 182.0
1.49740 165.0
1.50740 160.0
1.51740 111.0
1.52740 128.0
1.53740 149.0
1.54740 156.0
1.55740 130.0
1.56740 115.0
1.57740 121.0
1.58740 132.0
1.59740 113.0
1.60740 117.0
1.61740 115.0
1.62740 116.0
1.63740 110.0
1.64740 118.0
1.65740 114.0
1.66740 115.0
1.67740 104.0
1.68740 101.0
1.69740 128.0
1.70740 112.0
1.71740 101.0
1.72740 91.0
1.73740 94.0
1.74740 145.0
1.75740 113.0
1.76740 78.0
1.77740 80.0
1.78740 80.0
1.79740 71.0
1.80740 74.0
1.81740 54.0
1.82740 60.0
1.83740 59.0
1.84740 77.0
1.85740 57.0
1.86740 79.0
1.87740 73.0
1.88740 80.0
1.89740 74.0
1.90740 70.0
1.91740 82.0
1.92740 65.0
1.93740 97.0
1.94740 73.0
1.95740 70.0
1.96740 85.0
1.97740 74.0
1.98740 82.0
1.99740 106.0
