0.02540 131.0
0.03540 135.0
0.04540 134.0
0.05540 162.0
0.06540 158.0
0.07540 134.0
0.08540 129.0
0.09540 137.0
0.10540 119.0
0.11540 113.0
0.12540 118.0
0.13540 129.0
0.14540 143.0
0.15540 222.0
0.16540 214.0
0.17540 200.0
0.18540 223.0
0.19540 186.0
0.20540 239.0
0.21540 222.0
0.22540 238.0
0.23540 228.0
0.24540 175.0
0.25540 223.0
0.26540 249.0
0.27540 269.0
0.28540 312.0
0.29540 326.0
0.30540 367.0
0.31540 368.0
0.32540 381.0
0.33540 428.0
0.34540 430.0
0.35540 410.0
0.36540 435.0
0.37540 426.0
0.38540 394.0
0.39540 482.0
0.40540 504.0
0.41540 511.0
0.42540 575.0
0.43540 622.0
0.44540 647.0
0.45540 731.0
0.46540 755.0
0.47540 781.0
0.48540 800.0
0.49540 919.0
0.50540 1007.0
0.51540 1099.0
0.52540 1224.0
0.53540 1323.0
0.54540 1520.0
0.55540 1649.0
0.56540 1831.0
0.57540 2074.0
0.58540 2192.0
0.59540 2627.0
0.60540 2866.0
0.61540 3131.0
0.62540 3661.0
0.63540 3775.0
0.64540 4332.0
0.65540 4596.0
0.66540 4945.0
0.67540 5282.0
0.68540 5790.0
0.69540 6310.0
0.70540 6705.0
0.71540 7223.0
0.72540 7610.0
0.73540 7882.0
0.74540 8434.0
0.75540 8983.0
0.76540 9438.0
0.77540 9797.0
0.78540 10141.0
0.79540 10775.0
0.80540 11143.0
0.81540 11562.0
0.82540 12406.0
0.83540 12833.0
0.84540 13322.0
0.85540 14360.0
0.86540 15082.0
0.87540 15805.0
0.88540 16789.0
0.89540 18091.0
0.90540 19206.0
0.91540 20717.0
0.92540 22607.0
0.93540 24864.0
0.94540 27878.0
0.95540 33865.0
0.96540 86165.0
0.97540 687972.0
0.98540 3911254.0
0.99540 8959383.0
1.00540 11749154.0
1.01540 12402063.0
1.02540 11768541.0
1.03540 8639962.0
1.04540 3106236.0
1.05540 303343.0
1.06540 63912.0
1.07540 46168.0
1.08540 32853.0
1.09540 22475.0
1.10540 19738.0
1.11540 17945.0
1.12540 15944.0
1.13540 14867.0
1.14540 13757.0
1.15540 12642.0
1.16540 11830.0
1.17540 11061.0
1.18540 10500.0
1.19540 9959.0
1.20540 9026.0
1.21540 8593.0
1.22540 7746.0
1.23540 7259.0
1.24540 6524.0
1.25540 6248.0
1.26540 5778.0
1.27540 5425.0
1.28540 5128.0
1.29540 4665.0
1.30540 4188.0
1.31540 3765.0
1.32540 3547.0
1.33540 3181.0
1.34540 2792.0
1.35540 2522.0
1.36540 2187.0
1.37540 1923.0
1.38540 1700.0
1.39540 1551.0
1.40540 1335.0
1.41540 1140.0
1.42540 1026.0
1.43540 849.0
1.44540 783.0
1.45540 695.0
1.46540 648.0
1.47540 579.0
1.48540 514.0
1.49540 496.0
1.50540 419.0
1.51540 405.0
1.52540 376.0
1.53540 364.0
1.54540 302.0
1.55540 325.0
1.56540 258.0
1.57540 239.0
1.58540 222.0
1.59540 203.0
1.60540 179.0
1.61540 187.0
1.62540 191.0
1.63540 169.0
1.64540 156.0
1.65540 171.0
1.66540 155.0
1.67540 169.0
1.68540 178.0
1.69540 186.0
1.70540 131.0
1.71540 101.0
1.72540 103.0
1.73540 119.0
1.74540 146.0
1.75540 177.0
1.76540 180.0
1.77540 149.0
1.78540 167.0
1.79540 94.0
1.80540 99.0
1.81540 107.0
1.82540 94.0
1.83540 101.0
1.84540 126.0
1.85540 135.0
1.86540 94.0
1.87540 68.0
1.88540 94.0
1.89540 91.0
1.90540 106.0
1.91540 70.0
1.92540 84.0
1.93540 80.0
1.94540 68.0
1.95540 72.0
1.96540 88.0
1.97540 72.0
1.98540 87.0
1.99540 106.0
2.00540 90.0
