0.02760 15.0
0.03260 16.0
0.03760 10.0
0.04260 8.0
0.04760 8.0
0.05260 10.0
0.05760 14.0
0.06260 11.0
0.06760 6.0
0.07260 12.0
0.07760 10.0
0.08260 11.0
0.08760 13.0
0.09260 10.0
0.09760 11.0
0.10260 9.0
0.10760 11.0
0.11260 11.0
0.11760 11.0
0.12260 10.0
0.12760 11.0
0.13260 12.0
0.13760 10.0
0.14260 12.0
0.14760 9.0
0.15260 9.0
0.15760 13.0
0.16260 12.0
0.16760 11.0
0.17260 9.0
0.17760 8.0
0.18260 8.0
0.18760 14.0
0.19260 16.0
0.19760 9.0
0.20260 12.0
0.20760 11.0
0.21260 12.0
0.21760 12.0
0.22260 20.0
0.22760 14.0
0.23260 18.0
0.23760 16.0
0.24260 21.0
0.24760 16.0
0.25260 13.0
0.25760 13.0
0.26260 15.0
0.26760 16.0
0.27260 17.0
0.27760 34.0
0.28260 14.0
0.28760 21.0
0.29260 18.0
0.29760 19.0
0.30260 14.0
0.30760 21.0
0.31260 20.0
0.31760 23.0
0.32260 20.0
0.32760 26.0
0.33260 18.0
0.33760 31.0
0.34260 30.0
0.34760 20.0
0.35260 31.0
0.35760 26.0
0.36260 32.0
0.36760 21.0
0.37260 19.0
0.37760 21.0
0.38260 19.0
0.38760 30.0
0.39260 28.0
0.39760 22.0
0.40260 16.0
0.40760 34.0
0.41260 29.0
0.41760 41.0
0.42260 43.0
0.42760 36.0
0.43260 37.0
0.43760 34.0
0.44260 34.0
0.44760 39.0
0.45260 42.0
0.45760 47.0
0.46260 49.0
0.46760 38.0
0.47260 44.0
0.47760 59.0
0.48260 71.0
0.48760 84.0
0.49260 64.0
0.49760 65.0
0.50260 69.0
0.50760 93.0
0.51260 92.0
0.51760 98.0
0.52260 91.0
0.52760 100.0
0.53260 114.0
0.53760 106.0
0.54260 124.0
0.54760 134.0
0.55260 142.0
0.55760 135.0
0.56260 150.0
0.56760 156.0
0.57260 193.0
0.57760 169.0
0.58260 200.0
0.58760 227.0
0.59260 219.0
0.59760 221.0
0.60260 243.0
0.60760 245.0
0.61260 250.0
0.61760 256.0
0.62260 285.0
0.62760 304.0
0.63260 316.0
0.63760 327.0
0.64260 406.0
0.64760 397.0
0.65260 403.0
0.65760 496.0
0.66260 484.0
0.66760 536.0
0.67260 684.0
0.67760 725.0
0.68260 906.0
0.68760 1088.0
0.69260 1562.0
0.69760 3495.0
0.70260 17580.0
0.70760 87858.0
0.71260 333369.0
0.71760 912937.0
0.72260 1423482.0
0.72760 1552427.0
0.73260 1367527.0
0.73760 988389.0
0.74260 515832.0
0.74760 161418.0
0.75260 24547.0
0.75760 3706.0
0.76260 1790.0
0.76760 1244.0
0.77260 989.0
0.77760 802.0
0.78260 738.0
0.78760 630.0
0.79260 547.0
0.79760 473.0
0.80260 457.0
0.80760 372.0
0.81260 337.0
0.81760 323.0
0.82260 296.0
0.82760 287.0
0.83260 256.0
0.83760 259.0
0.84260 224.0
0.84760 215.0
0.85260 193.0
0.85760 200.0
0.86260 198.0
0.86760 166.0
0.87260 160.0
0.87760 144.0
0.88260 145.0
0.88760 142.0
0.89260 133.0
0.89760 126.0
0.90260 128.0
0.90760 116.0
0.91260 103.0
0.91760 105.0
0.92260 94.0
0.92760 88.0
0.93260 74.0
0.93760 83.0
0.94260 70.0
0.94760 52.0
0.95260 70.0
0.95760 57.0
0.96260 38.0
0.96760 45.0
0.97260 56.0
0.97760 45.0
0.98260 39.0
0.98760 32.0
0.99260 36.0
0.99760 43.0
1.00260 34.0
1.00760 31.0
1.01260 31.0
1.01760 32.0
1.02260 27.0
1.02760 26.0
1.03260 23.0
1.03760 25.0
1.04260 19.0
1.04760 20.0
1.05260 21.0
1.05760 28.0
1.06260 32.0
1.06760 23.0
1.07260 22.0
1.07760 20.0
1.08260 20.0
1.08760 17.0
1.09260 20.0
1.09760 24.0
1.10260 24.0
1.10760 19.0
1.11260 15.0
1.11760 25.0
1.12260 21.0
1.12760 24.0
1.13260 20.0
1.13760 21.0
1.14260 24.0
1.14760 14.0
1.15260 14.0
1.15760 13.0
1.16260 20.0
1.16760 13.0
1.17260 20.0
1.17760 13.0
1.18260 8.0
1.18760 18.0
1.19260 16.0
1.19760 9.0
1.20260 11.0
1.20760 10.0
1.21260 18.0
1.21760 16.0
1.22260 12.0
1.22760 5.0
1.23260 12.0
1.23760 19.0
1.24260 9.0
1.24760 14.0
1.25260 11.0
1.25760 8.0
1.26260 15.0
1.26760 13.0
1.27260 21.0
1.27760 20.0
1.28260 16.0
1.28760 9.0
1.29260 5.0
1.29760 4.0
1.30260 8.0
1.30760 17.0
1.31260 10.0
1.31760 8.0
1.32260 18.0
1.32760 8.0
1.33260 8.0
1.33760 5.0
1.34260 14.0
1.34760 10.0
1.35260 8.0
1.35760 10.0
1.36260 15.0
1.36760 16.0
1.37260 9.0
1.37760 11.0
1.38260 13.0
1.38760 10.0
1.39260 3.0
1.39760 9.0
1.40260 5.0
1.40760 6.0
