-0.95710 67.0
-0.94710 66.0
-0.93710 83.0
-0.92710 95.0
-0.91710 80.0
-0.90710 97.0
-0.89710 91.0
-0.88710 125.0
-0.87710 78.0
-0.86710 93.0
-0.85710 101.0
-0.84710 88.0
-0.83710 59.0
-0.82710 74.0
-0.81710 76.0
-0.80710 123.0
-0.79710 115.0
-0.78710 135.0
-0.77710 88.0
-0.76710 69.0
-0.75710 52.0
-0.74710 74.0
-0.73710 59.0
-0.72710 83.0
-0.71710 72.0
-0.70710 76.0
-0.69710 65.0
-0.68710 74.0
-0.67710 85.0
-0.66710 104.0
-0.65710 87.0
-0.64710 70.0
-0.63710 69.0
-0.62710 68.0
-0.61710 84.0
-0.60710 62.0
-0.59710 61.0
-0.58710 71.0
-0.57710 59.0
-0.56710 69.0
-0.55710 65.0
-0.54710 87.0
-0.53710 93.0
-0.52710 76.0
-0.51710 117.0
-0.50710 110.0
-0.49710 109.0
-0.48710 92.0
-0.47710 76.0
-0.46710 70.0
-0.45710 85.0
-0.44710 77.0
-0.43710 99.0
-0.42710 111.0
-0.41710 117.0
-0.40710 127.0
-0.39710 90.0
-0.38710 89.0
-0.37710 94.0
-0.36710 78.0
-0.35710 84.0
-0.34710 122.0
-0.33710 88.0
-0.32710 78.0
-0.31710 92.0
-0.30710 74.0
-0.29710 92.0
-0.28710 93.0
-0.27710 74.0
-0.26710 96.0
-0.25710 75.0
-0.24710 86.0
-0.23710 109.0
-0.22710 116.0
-0.21710 121.0
-0.20710 135.0
-0.19710 125.0
-0.18710 141.0
-0.17710 123.0
-0.16710 121.0
-0.15710 111.0
-0.14710 95.0
-0.13710 87.0
-0.12710 79.0
-0.11710 80.0
-0.10710 77.0
-0.09710 77.0
-0.08710 83.0
-0.07710 92.0
-0.06710 109.0
-0.05710 84.0
-0.04710 86.0
-0.03710 59.0
-0.02710 67.0
-0.01710 72.0
-0.00710 90.0
0.00290 95.0
0.01290 100.0
0.02290 101.0
0.03290 106.0
0.04290 105.0
0.05290 82.0
0.06290 96.0
0.07290 116.0
0.08290 120.0
0.09290 113.0
0.10290 117.0
0.11290 154.0
0.12290 157.0
0.13290 181.0
0.14290 160.0
0.15290 156.0
0.16290 170.0
0.17290 213.0
0.18290 268.0
0.19290 234.0
0.20290 191.0
0.21290 182.0
0.22290 213.0
0.23290 161.0
0.24290 184.0
0.25290 195.0
0.26290 237.0
0.27290 228.0
0.28290 211.0
0.29290 244.0
0.30290 234.0
0.31290 300.0
0.32290 306.0
0.33290 303.0
0.34290 361.0
0.35290 382.0
0.36290 393.0
0.37290 399.0
0.38290 417.0
0.39290 427.0
0.40290 509.0
0.41290 546.0
0.42290 580.0
0.43290 613.0
0.44290 686.0
0.45290 843.0
0.46290 890.0
0.47290 974.0
0.48290 1118.0
0.49290 1334.0
0.50290 1467.0
0.51290 1559.0
0.52290 1815.0
0.53290 2027.0
0.54290 2326.0
0.55290 2521.0
0.56290 2917.0
0.57290 3318.0
0.58290 3827.0
0.59290 4323.0
0.60290 4662.0
0.61290 5122.0
0.62290 5619.0
0.63290 6142.0
0.64290 6726.0
0.65290 7476.0
0.66290 7849.0
0.67290 8586.0
0.68290 8855.0
0.69290 9350.0
0.70290 10032.0
0.71290 10506.0
0.72290 11190.0
0.73290 12132.0
0.74290 12828.0
0.75290 13411.0
0.76290 14232.0
0.77290 14927.0
0.78290 15505.0
0.79290 16603.0
0.80290 17215.0
0.81290 18283.0
0.82290 19174.0
0.83290 20802.0
0.84290 22294.0
0.85290 23734.0
0.86290 24959.0
0.87290 26478.0
0.88290 28339.0
0.89290 30130.0
0.90290 31773.0
0.91290 34952.0
0.92290 37940.0
0.93290 40911.0
0.94290 43780.0
0.95290 48628.0
0.96290 54209.0
0.97290 84361.0
0.98290 278914.0
0.99290 1313468.0
1.00290 4410124.0
1.01290 9830909.0
1.02290 15661263.0
1.03290 17387520.0
1.04290 10802592.0
1.05290 2236718.0
1.06290 128533.0
1.07290 56129.0
1.08290 47290.0
1.09290 41254.0
1.10290 36957.0
1.11290 33755.0
1.12290 31029.0
1.13290 27931.0
1.14290 26261.0
1.15290 24224.0
1.16290 22605.0
1.17290 21104.0
1.18290 19636.0
1.19290 18246.0
1.20290 17380.0
1.21290 15953.0
1.22290 14941.0
1.23290 13737.0
1.24290 13088.0
1.25290 12049.0
1.26290 11075.0
1.27290 10473.0
1.28290 9653.0
1.29290 8883.0
1.30290 8261.0
1.31290 7434.0
1.32290 6979.0
1.33290 6383.0
1.34290 5997.0
1.35290 5287.0
1.36290 4758.0
1.37290 4317.0
1.38290 3897.0
1.39290 3533.0
1.40290 3074.0
1.41290 2636.0
1.42290 2382.0
1.43290 2131.0
1.44290 1917.0
1.45290 1633.0
1.46290 1464.0
1.47290 1312.0
1.48290 1172.0
1.49290 1102.0
1.50290 919.0
1.51290 907.0
1.52290 860.0
1.53290 784.0
1.54290 647.0
1.55290 677.0
1.56290 578.0
1.57290 566.0
1.58290 497.0
1.59290 447.0
1.60290 406.0
1.61290 369.0
1.62290 301.0
1.63290 260.0
1.64290 240.0
1.65290 218.0
1.66290 221.0
1.67290 205.0
1.68290 183.0
1.69290 192.0
1.70290 146.0
1.71290 203.0
1.72290 199.0
1.73290 161.0
1.74290 158.0
1.75290 174.0
1.76290 128.0
1.77290 172.0
1.78290 157.0
1.79290 146.0
1.80290 148.0
1.81290 147.0
1.82290 137.0
1.83290 155.0
1.84290 117.0
1.85290 154.0
1.86290 135.0
1.87290 176.0
1.88290 140.0
1.89290 121.0
1.90290 121.0
1.91290 100.0
1.92290 86.0
1.93290 83.0
1.94290 97.0
1.95290 107.0
1.96290 126.0
1.97290 109.0
1.98290 88.0
1.99290 93.0
2.00290 160.0
2.01290 120.0
2.02290 129.0
2.03290 116.0
2.04290 85.0
2.05290 99.0
2.06290 88.0
2.07290 65.0
2.08290 84.0
2.09290 63.0
2.10290 100.0
2.11290 112.0
2.12290 92.0
2.13290 91.0
2.14290 79.0
2.15290 95.0
2.16290 118.0
2.17290 94.0
2.18290 109.0
2.19290 95.0
2.20290 77.0
2.21290 73.0
2.22290 64.0
2.23290 98.0
2.24290 91.0
2.25290 68.0
2.26290 108.0
2.27290 92.0
2.28290 94.0
2.29290 74.0
2.30290 61.0
2.31290 66.0
2.32290 78.0
2.33290 51.0
2.34290 81.0
2.35290 50.0
2.36290 84.0
2.37290 88.0
2.38290 87.0
2.39290 92.0
2.40290 98.0
2.41290 111.0
2.42290 80.0
2.43290 108.0
2.44290 96.0
2.45290 115.0
2.46290 112.0
2.47290 90.0
2.48290 99.0
2.49290 106.0
2.50290 77.0
2.51290 128.0
2.52290 120.0
2.53290 104.0
2.54290 128.0
2.55290 121.0
2.56290 136.0
2.57290 122.0
2.58290 115.0
2.59290 118.0
2.60290 85.0
2.61290 71.0
2.62290 127.0
2.63290 105.0
2.64290 152.0
2.65290 176.0
2.66290 183.0
2.67290 144.0
2.68290 173.0
2.69290 190.0
2.70290 200.0
2.71290 208.0
2.72290 198.0
2.73290 161.0
2.74290 160.0
2.75290 149.0
2.76290 101.0
2.77290 66.0
2.78290 110.0
2.79290 105.0
2.80290 67.0
2.81290 52.0
2.82290 114.0
2.83290 90.0
2.84290 76.0
2.85290 88.0
2.86290 93.0
2.87290 107.0
2.88290 111.0
2.89290 102.0
2.90290 102.0
2.91290 85.0
2.92290 84.0
2.93290 66.0
2.94290 89.0
2.95290 83.0
2.96290 132.0
2.97290 104.0
2.98290 128.0
2.99290 134.0
3.00290 126.0
3.01290 150.0
3.02290 124.0
