0.02260 270.0
0.03260 234.0
0.04260 252.0
0.05260 271.0
0.06260 312.0
0.07260 255.0
0.08260 256.0
0.09260 244.0
0.10260 260.0
0.11260 243.0
0.12260 223.0
0.13260 261.0
0.14260 239.0
0.15260 285.0
0.16260 284.0
0.17260 225.0
0.18260 227.0
0.19260 200.0
0.20260 244.0
0.21260 259.0
0.22260 253.0
0.23260 283.0
0.24260 304.0
0.25260 268.0
0.26260 316.0
0.27260 305.0
0.28260 299.0
0.29260 330.0
0.30260 363.0
0.31260 392.0
0.32260 399.0
0.33260 418.0
0.34260 435.0
0.35260 466.0
0.36260 492.0
0.37260 492.0
0.38260 467.0
0.39260 508.0
0.40260 564.0
0.41260 598.0
0.42260 614.0
0.43260 677.0
0.44260 681.0
0.45260 747.0
0.46260 848.0
0.47260 854.0
0.48260 1045.0
0.49260 1073.0
0.50260 1166.0
0.51260 1350.0
0.52260 1477.0
0.53260 1560.0
0.54260 1723.0
0.55260 1856.0
0.56260 2131.0
0.57260 2362.0
0.58260 2531.0
0.59260 2903.0
0.60260 3086.0
0.61260 3476.0
0.62260 3791.0
0.63260 4116.0
0.64260 4371.0
0.65260 4772.0
0.66260 5005.0
0.67260 5276.0
0.68260 5498.0
0.69260 5889.0
0.70260 6463.0
0.71260 6715.0
0.72260 6870.0
0.73260 7291.0
0.74260 7730.0
0.75260 7868.0
0.76260 8130.0
0.77260 8397.0
0.78260 8691.0
0.79260 9120.0
0.80260 9326.0
0.81260 9371.0
0.82260 9887.0
0.83260 10173.0
0.84260 10656.0
0.85260 11049.0
0.86260 11310.0
0.87260 11660.0
0.88260 12261.0
0.89260 12959.0
0.90260 13507.0
0.91260 14376.0
0.92260 15072.0
0.93260 16414.0
0.94260 17988.0
0.95260 22889.0
0.96260 77664.0
0.97260 569411.0
0.98260 2859816.0
0.99260 7445886.0
1.00260 11924289.0
1.01260 14185957.0
1.02260 13021505.0
1.03260 7386330.0
1.04260 1596078.0
1.05260 75679.0
1.06260 22181.0
1.07260 18238.0
1.08260 16386.0
1.09260 14751.0
1.10260 13303.0
1.11260 12160.0
1.12260 11421.0
1.13260 10804.0
1.14260 10072.0
1.15260 9427.0
1.16260 8949.0
1.17260 8388.0
1.18260 7956.0
1.19260 7695.0
1.20260 7066.0
1.21260 6796.0
1.22260 6353.0
1.23260 6060.0
1.24260 5397.0
1.25260 5291.0
1.26260 5086.0
1.27260 4645.0
1.28260 4370.0
1.29260 3877.0
1.30260 3643.0
1.31260 3130.0
1.32260 2889.0
1.33260 2578.0
1.34260 2427.0
1.35260 2205.0
1.36260 1831.0
1.37260 1649.0
1.38260 1534.0
1.39260 1259.0
1.40260 1115.0
1.41260 1002.0
1.42260 1009.0
1.43260 837.0
1.44260 714.0
1.45260 691.0
1.46260 703.0
1.47260 543.0
1.48260 516.0
1.49260 462.0
1.50260 467.0
1.51260 427.0
1.52260 409.0
1.53260 397.0
1.54260 341.0
1.55260 373.0
1.56260 322.0
1.57260 282.0
1.58260 342.0
1.59260 284.0
1.60260 288.0
1.61260 243.0
1.62260 234.0
1.63260 253.0
1.64260 213.0
1.65260 204.0
1.66260 177.0
1.67260 164.0
1.68260 186.0
1.69260 166.0
1.70260 164.0
1.71260 187.0
1.72260 190.0
1.73260 171.0
1.74260 174.0
1.75260 164.0
1.76260 162.0
1.77260 154.0
1.78260 135.0
1.79260 138.0
1.80260 132.0
1.81260 147.0
1.82260 180.0
1.83260 179.0
1.84260 265.0
1.85260 232.0
1.86260 158.0
1.87260 175.0
1.88260 168.0
1.89260 139.0
1.90260 150.0
1.91260 166.0
1.92260 154.0
1.93260 160.0
1.94260 133.0
1.95260 116.0
1.96260 142.0
1.97260 138.0
1.98260 171.0
1.99260 125.0
2.00260 167.0
