-1.13810 18.0
-1.12810 24.0
-1.11810 22.0
-1.10810 26.0
-1.09810 23.0
-1.08810 19.0
-1.07810 30.0
-1.06810 26.0
-1.05810 34.0
-1.04810 17.0
-1.03810 27.0
-1.02810 21.0
-1.01810 26.0
-1.00810 21.0
-0.99810 34.0
-0.98810 20.0
-0.97810 30.0
-0.96810 25.0
-0.95810 27.0
-0.94810 22.0
-0.93810 17.0
-0.92810 29.0
-0.91810 18.0
-0.90810 17.0
-0.89810 18.0
-0.88810 16.0
-0.87810 18.0
-0.86810 25.0
-0.85810 18.0
-0.84810 38.0
-0.83810 29.0
-0.82810 36.0
-0.81810 32.0
-0.80810 31.0
-0.79810 30.0
-0.78810 27.0
-0.77810 18.0
-0.76810 18.0
-0.75810 18.0
-0.74810 18.0
-0.73810 25.0
-0.72810 18.0
-0.71810 17.0
-0.70810 18.0
-0.69810 22.0
-0.68810 15.0
-0.67810 13.0
-0.66810 14.0
-0.65810 16.0
-0.64810 16.0
-0.63810 17.0
-0.62810 13.0
-0.61810 13.0
-0.60810 22.0
-0.59810 17.0
-0.58810 16.0
-0.57810 11.0
-0.56810 10.0
-0.55810 15.0
-0.54810 22.0
-0.53810 6.0
-0.52810 16.0
-0.51810 14.0
-0.50810 21.0
-0.49810 6.0
-0.48810 28.0
-0.47810 20.0
-0.46810 20.0
-0.45810 27.0
-0.44810 21.0
-0.43810 21.0
-0.42810 15.0
-0.41810 20.0
-0.40810 13.0
-0.39810 18.0
-0.38810 18.0
-0.37810 16.0
-0.36810 21.0
-0.35810 31.0
-0.34810 26.0
-0.33810 15.0
-0.32810 20.0
-0.31810 18.0
-0.30810 19.0
-0.29810 16.0
-0.28810 16.0
-0.27810 7.0
-0.26810 21.0
-0.25810 19.0
-0.24810 12.0
-0.23810 17.0
-0.22810 23.0
-0.21810 16.0
-0.20810 19.0
-0.19810 13.0
-0.18810 13.0
-0.17810 10.0
-0.16810 14.0
-0.15810 9.0
-0.14810 6.0
-0.13810 4.0
-0.12810 9.0
-0.11810 6.0
-0.10810 4.0
-0.09810 9.0
-0.08810 8.0
-0.07810 10.0
-0.06810 12.0
-0.05810 13.0
-0.04810 16.0
-0.03810 12.0
-0.02810 7.0
-0.01810 17.0
-0.00810 13.0
0.00190 12.0
0.01190 8.0
0.02190 14.0
0.03190 10.0
0.04190 6.0
0.05190 14.0
0.06190 9.0
0.07190 15.0
0.08190 12.0
0.09190 13.0
0.10190 16.0
0.11190 13.0
0.12190 18.0
0.13190 17.0
0.14190 26.0
0.15190 19.0
0.16190 16.0
0.17190 21.0
0.18190 19.0
0.19190 16.0
0.20190 19.0
0.21190 17.0
0.22190 21.0
0.23190 16.0
0.24190 16.0
0.25190 15.0
0.26190 26.0
0.27190 21.0
0.28190 31.0
0.29190 20.0
0.30190 27.0
0.31190 17.0
0.32190 32.0
0.33190 36.0
0.34190 38.0
0.35190 21.0
0.36190 36.0
0.37190 39.0
0.38190 38.0
0.39190 30.0
0.40190 44.0
0.41190 45.0
0.42190 37.0
0.43190 64.0
0.44190 48.0
0.45190 44.0
0.46190 54.0
0.47190 71.0
0.48190 65.0
0.49190 72.0
0.50190 70.0
0.51190 75.0
0.52190 110.0
0.53190 113.0
0.54190 130.0
0.55190 160.0
0.56190 135.0
0.57190 162.0
0.58190 181.0
0.59190 190.0
0.60190 192.0
0.61190 191.0
0.62190 206.0
0.63190 244.0
0.64190 247.0
0.65190 240.0
0.66190 260.0
0.67190 224.0
0.68190 286.0
0.69190 298.0
0.70190 266.0
0.71190 301.0
0.72190 349.0
0.73190 318.0
0.74190 311.0
0.75190 371.0
0.76190 415.0
0.77190 467.0
0.78190 462.0
0.79190 576.0
0.80190 750.0
0.81190 922.0
0.82190 1495.0
0.83190 13788.0
0.84190 152980.0
0.85190 804641.0
0.86190 1131905.0
0.87190 555198.0
0.88190 61006.0
0.89190 2097.0
0.90190 1032.0
0.91190 789.0
0.92190 634.0
0.93190 531.0
0.94190 494.0
0.95190 447.0
0.96190 396.0
0.97190 347.0
0.98190 352.0
0.99190 315.0
1.00190 327.0
1.01190 262.0
1.02190 288.0
1.03190 266.0
1.04190 263.0
1.05190 217.0
1.06190 252.0
1.07190 235.0
1.08190 229.0
1.09190 197.0
1.10190 203.0
1.11190 186.0
1.12190 143.0
1.13190 142.0
1.14190 143.0
1.15190 105.0
1.16190 100.0
1.17190 113.0
1.18190 86.0
1.19190 65.0
1.20190 71.0
1.21190 67.0
1.22190 50.0
1.23190 69.0
1.24190 53.0
1.25190 40.0
1.26190 40.0
1.27190 45.0
1.28190 46.0
1.29190 30.0
1.30190 34.0
1.31190 53.0
1.32190 28.0
1.33190 36.0
1.34190 43.0
1.35190 48.0
1.36190 35.0
1.37190 38.0
1.38190 28.0
1.39190 37.0
1.40190 29.0
1.41190 24.0
1.42190 15.0
1.43190 29.0
1.44190 23.0
1.45190 23.0
1.46190 18.0
1.47190 20.0
1.48190 23.0
1.49190 26.0
1.50190 17.0
1.51190 22.0
1.52190 23.0
1.53190 15.0
1.54190 17.0
1.55190 23.0
1.56190 16.0
1.57190 14.0
1.58190 17.0
1.59190 25.0
1.60190 19.0
1.61190 36.0
1.62190 25.0
1.63190 12.0
1.64190 13.0
1.65190 24.0
1.66190 11.0
1.67190 17.0
1.68190 20.0
1.69190 18.0
1.70190 21.0
1.71190 14.0
1.72190 11.0
1.73190 16.0
1.74190 15.0
1.75190 9.0
1.76190 19.0
1.77190 14.0
1.78190 17.0
1.79190 25.0
1.80190 26.0
1.81190 29.0
1.82190 12.0
1.83190 23.0
1.84190 30.0
1.85190 10.0
1.86190 26.0
1.87190 32.0
1.88190 19.0
1.89190 15.0
1.90190 15.0
1.91190 12.0
1.92190 14.0
1.93190 15.0
1.94190 18.0
1.95190 19.0
1.96190 17.0
1.97190 18.0
1.98190 12.0
1.99190 16.0
2.00190 12.0
2.01190 17.0
2.02190 23.0
2.03190 15.0
2.04190 19.0
2.05190 16.0
2.06190 26.0
2.07190 22.0
2.08190 34.0
2.09190 24.0
2.10190 22.0
2.11190 23.0
2.12190 22.0
2.13190 26.0
2.14190 20.0
2.15190 16.0
2.16190 16.0
2.17190 25.0
2.18190 31.0
2.19190 25.0
2.20190 33.0
2.21190 34.0
2.22190 32.0
2.23190 40.0
2.24190 32.0
2.25190 30.0
2.26190 20.0
2.27190 14.0
2.28190 38.0
2.29190 35.0
2.30190 39.0
2.31190 37.0
2.32190 38.0
2.33190 31.0
2.34190 17.0
2.35190 22.0
2.36190 32.0
2.37190 32.0
2.38190 31.0
2.39190 32.0
2.40190 18.0
2.41190 33.0
2.42190 32.0
2.43190 25.0
2.44190 39.0
2.45190 42.0
2.46190 62.0
2.47190 47.0
2.48190 43.0
2.49190 45.0
2.50190 24.0
2.51190 37.0
2.52190 43.0
2.53190 32.0
2.54190 24.0
2.55190 39.0
2.56190 40.0
2.57190 38.0
2.58190 41.0
2.59190 27.0
2.60190 24.0
2.61190 30.0
2.62190 25.0
2.63190 20.0
2.64190 25.0
2.65190 24.0
2.66190 31.0
2.67190 25.0
2.68190 24.0
2.69190 32.0
2.70190 27.0
2.71190 26.0
2.72190 33.0
2.73190 17.0
2.74190 36.0
2.75190 37.0
2.76190 58.0
2.77190 47.0
2.78190 31.0
2.79190 27.0
2.80190 29.0
2.81190 27.0
2.82190 24.0
2.83190 38.0
2.84190 26.0
